   Data source: Cometa - EmgTools - 2.1.4 - Files: 0956~... - collection; EMG filter: 0 - 500 Hz     - 
Time(s)  ; L.RecFem(uV) ; L.VasLat(uV) ; L.VasMedO(uV) ; L.VasMedV(uV) 
  0.0000;  15.8391;  15.1031;   8.5500;  29.1058;
  0.0010;  21.3969;  14.4537;  10.5355;  32.3538;
  0.0020;  20.0526;  15.6841;  10.5912;  32.4376;
  0.0030;  19.1587;  16.4353;  10.4957;  32.8326;
  0.0040;  19.8692;  17.0319;   9.2040;  33.6000;
  0.0050;  20.1836;  19.5226;   8.8418;  33.5757;
  0.0060;  22.5552;  20.5936;  11.7455;  33.7778;
  0.0070;  21.3851;  19.5742;  11.3207;  33.7927;
  0.0080;  18.7611;  17.7330;   8.4628;  34.0077;
  0.0090;  20.2546;  16.7611;   8.5118;  34.0699;
  0.0100;  20.9068;  18.9197;   8.8736;  33.4055;
  0.0110;  21.1960;  18.2971;   9.4980;  33.5543;
  0.0120;  21.8741;  16.2408;   9.6468;  33.3779;
  0.0130;  21.0650;  18.1668;   9.3677;  32.7212;
  0.0140;  21.1177;  17.8670;   9.9708;  32.8825;
  0.0150;  21.9759;  16.7554;   7.8951;  32.2497;
  0.0160;  22.2503;  17.5737;   7.3980;  32.4208;
  0.0170;  20.5057;  17.1467;   9.3928;  33.7749;
  0.0180;  18.5096;  17.2578;   8.1399;  33.1939;
  0.0190;  19.1396;  16.0017;   8.4785;  32.9844;
  0.0200;  19.1996;  15.4314;   9.9968;  33.9249;
  0.0210;  17.0876;  17.6609;   8.3360;  32.8697;
  0.0220;  16.1199;  16.2738;   7.7499;  31.5726;
  0.0230;  17.6862;  15.3561;   8.2553;  32.2902;
  0.0240;  18.2915;  18.1874;   7.2693;  32.8365;
  0.0250;  17.2006;  17.7251;   6.5976;  32.3485;
  0.0260;  17.0743;  16.2001;   6.7644;  32.6462;
  0.0270;  17.1894;  19.0286;   6.4852;  32.8700;
  0.0280;  18.0106;  20.2514;   7.5755;  32.4091;
  0.0290;  18.1945;  16.4069;   8.8242;  32.3754;
  0.0300;  16.5080;  15.1175;   7.3610;  31.9303;
  0.0310;  15.3884;  17.2169;   8.2109;  33.2170;
  0.0320;  14.4031;  18.6738;   9.9332;  36.5918;
  0.0330;  14.9873;  19.2095;   8.8518;  37.0147;
  0.0340;  14.5916;  16.3638;   9.6665;  35.4692;
  0.0350;  11.7007;  14.0040;   9.3365;  34.6292;
  0.0360;  12.8293;  14.6510;   7.3090;  33.9313;
  0.0370;  14.6470;  14.4416;   7.9237;  34.3870;
  0.0380;  15.1078;  15.4448;   8.8236;  34.7147;
  0.0390;  16.5807;  16.3626;  10.3184;  33.8481;
  0.0400;  15.5907;  15.9484;  10.0918;  33.6486;
  0.0410;  15.0000;  15.8774;   7.5305;  33.7637;
  0.0420;  15.5389;  14.7942;   7.5877;  33.5899;
  0.0430;  14.7516;  15.1006;   8.1703;  33.9196;
  0.0440;  14.9222;  16.0056;   8.4667;  33.9557;
  0.0450;  15.3030;  17.2193;   8.6904;  32.8226;
  0.0460;  15.0929;  20.6690;   7.6262;  31.9210;
  0.0470;  14.7544;  22.5325;   7.2131;  31.8294;
  0.0480;  15.3896;  22.4175;   6.9569;  32.1130;
  0.0490;  16.5150;  21.2287;   7.5176;  32.4620;
  0.0500;  15.6850;  21.2149;   7.6802;  31.1065;
  0.0510;  15.3037;  21.7988;   5.8825;  29.5111;
  0.0520;  16.4915;  19.0452;   6.2636;  29.5389;
  0.0530;  15.8971;  18.9258;   6.6449;  29.2344;
  0.0540;  12.9320;  17.9456;   5.4529;  29.1182;
  0.0550;  12.8003;  11.5459;   6.5168;  28.5443;
  0.0560;  16.1345;  10.2216;   7.5865;  28.4705;
  0.0570;  17.1539;  12.3705;   7.7582;  31.6854;
  0.0580;  17.5462;  13.7240;   8.5063;  31.7181;
  0.0590;  17.4502;  15.4706;   8.7219;  28.9547;
  0.0600;  15.9848;  14.7171;   8.9006;  30.0373;
  0.0610;  16.5146;  13.7960;   8.6674;  30.3249;
  0.0620;  14.9753;  13.5357;   7.8817;  30.0416;
  0.0630;  13.5121;  13.2822;   8.3690;  31.4899;
  0.0640;  15.5438;  14.7165;   9.4115;  30.4410;
  0.0650;  15.7825;  16.9112;   9.4967;  30.1669;
  0.0660;  15.2203;  17.4462;   8.6278;  31.7746;
  0.0670;  14.0306;  15.3403;   7.6079;  31.0502;
  0.0680;  13.5831;  15.0792;   7.4208;  29.9116;
  0.0690;  15.9221;  15.1017;   7.6689;  30.5266;
  0.0700;  16.3168;  13.6364;   7.9934;  31.6462;
  0.0710;  16.7121;  15.5023;   8.2524;  31.4195;
  0.0720;  17.6302;  15.4772;   7.8388;  31.2438;
  0.0730;  15.5724;  13.8356;   7.2749;  31.6066;
  0.0740;  13.7653;  14.8265;   6.4217;  29.6647;
  0.0750;  14.0120;  14.1595;   5.9408;  28.6435;
  0.0760;  14.4582;  14.1982;   6.8641;  29.5785;
  0.0770;  13.8681;  14.9052;   7.2230;  29.0412;
  0.0780;  14.2658;  15.3839;   7.5823;  29.2184;
  0.0790;  15.7970;  16.4430;   7.9873;  29.8955;
  0.0800;  15.8372;  15.0483;   7.2513;  29.9171;
  0.0810;  16.7300;  16.3543;   9.0600;  30.5261;
  0.0820;  17.5540;  18.4510;  10.3167;  30.6870;
  0.0830;  15.6623;  16.6234;   7.6321;  30.5072;
  0.0840;  15.5689;  17.1799;   7.8020;  29.5176;
  0.0850;  17.7925;  18.8047;   9.7119;  29.1292;
  0.0860;  17.0918;  19.4921;   9.6405;  30.3106;
  0.0870;  14.2577;  19.2424;   9.6373;  30.0793;
  0.0880;  13.2039;  16.9833;   8.5517;  31.0316;
  0.0890;  13.4775;  16.7008;   8.9058;  32.7072;
  0.0900;  13.6776;  15.8418;  10.0775;  31.7064;
  0.0910;  12.7798;  14.4206;   7.5265;  31.3545;
  0.0920;  12.2554;  16.5020;   6.8910;  31.1544;
  0.0930;  13.7061;  16.7154;   8.4837;  31.2017;
  0.0940;  14.1079;  16.1268;   8.0891;  32.5163;
  0.0950;  14.4941;  18.2645;   8.4365;  31.9062;
  0.0960;  15.5793;  17.0609;   8.6312;  31.3899;
  0.0970;  15.9138;  14.3963;   9.5498;  30.6563;
  0.0980;  15.6513;  14.9308;  10.3954;  29.6401;
  0.0990;  13.4558;  14.9648;   7.8769;  31.6577;
  0.1000;  16.2933;  17.2581;   9.0953;  30.2391;
  0.1010;  20.1854;  20.8448;  11.5604;  26.1779;
  0.1020;  15.1121;  16.9687;   8.3748;  28.5188;
  0.1030;  14.7133;  14.7723;   6.5877;  31.8002;
  0.1040;  17.9047;  24.6623;   7.3727;  31.1040;
  0.1050;  14.6286;  38.3811;   8.3521;  31.4428;
  0.1060;  14.6034;  44.8409;   8.8779;  32.4530;
  0.1070;  16.0886;  40.2019;   6.9179;  31.6008;
  0.1080;  14.8778;  31.1480;   6.7856;  31.3617;
  0.1090;  14.8321;  21.1552;   8.1581;  32.4536;
  0.1100;  15.2300;   9.2169;   7.9043;  32.3024;
  0.1110;  15.1048;   1.8453;   7.5046;  30.5001;
  0.1120;  13.5943;  -3.8251;   7.0861;  29.0840;
  0.1130;  13.9598; -12.4817;   6.8764;  29.2763;
  0.1140;  15.2119; -14.5965;   6.0855;  29.2359;
  0.1150;  14.6556;  -6.9663;   7.0484;  28.3807;
  0.1160;  14.5568;   1.8412;   8.5317;  29.0763;
  0.1170;  12.8025;   7.1819;   6.1161;  29.6455;
  0.1180;  12.7384;  11.1609;   6.1366;  28.8504;
  0.1190;  14.5150;  13.3686;   7.5161;  29.0253;
  0.1200;  13.7167;  13.8596;   6.7146;  28.9212;
  0.1210;  14.0764;  15.2142;   7.7706;  28.6436;
  0.1220;  14.2349;  16.0995;   7.2092;  29.6341;
  0.1230;  14.3482;  16.5477;   7.4670;  29.3036;
  0.1240;  14.8188;  15.7350;   9.3932;  28.3702;
  0.1250;  13.0048;  14.4291;   7.4278;  28.8158;
  0.1260;  13.4104;  15.8448;   7.0632;  28.9973;
  0.1270;  14.3886;  16.7102;   8.0427;  29.5054;
  0.1280;  14.2122;  17.4919;   7.6540;  30.6274;
  0.1290;  15.0900;  17.7603;   8.8173;  30.5760;
  0.1300;  14.8245;  16.4938;   9.3560;  30.3554;
  0.1310;  14.6507;  18.2584;   9.7865;  30.7231;
  0.1320;  15.6039;  18.7129;  10.8559;  31.1820;
  0.1330;  16.6252;  17.4760;  10.7631;  31.5860;
  0.1340;  15.9380;  17.1536;   9.5645;  31.0654;
  0.1350;  15.2741;  15.0488;   8.5705;  30.9456;
  0.1360;  16.5815;  14.7631;   9.1448;  31.8445;
  0.1370;  15.5744;  14.9807;   9.4539;  31.1551;
  0.1380;  16.0113;  15.4114;  10.0089;  29.7933;
  0.1390;  17.4723;  17.4971;  10.0671;  30.2840;
  0.1400;  15.6544;  16.8493;   8.7151;  31.1366;
  0.1410;  16.1365;  15.2998;   9.7720;  30.9065;
  0.1420;  14.9172;  13.3652;  10.1259;  30.9464;
  0.1430;  12.2832;  13.2013;   8.6843;  30.6329;
  0.1440;  12.8979;  14.1308;   8.1364;  29.3838;
  0.1450;  12.1175;  12.1439;   7.3178;  29.8092;
  0.1460;  13.1722;  13.3530;   7.2998;  29.3657;
  0.1470;  13.5048;  12.8082;   6.0312;  28.1357;
  0.1480;  12.5591;  11.3351;   6.2701;  31.6905;
  0.1490;  16.7149;  17.0276;  10.1078;  32.8280;
  0.1500;  16.7735;  17.2304;   9.2636;  28.8594;
  0.1510;  13.3895;  12.6804;   6.6956;  29.8356;
  0.1520;  14.0010;  12.7913;   7.0314;  32.1748;
  0.1530;  14.9057;  15.6617;   7.6123;  31.0840;
  0.1540;  15.5818;  19.4783;   8.2419;  31.6000;
  0.1550;  14.0898;  18.1805;   6.6712;  32.5259;
  0.1560;  12.6294;  15.6891;   5.3942;  31.5049;
  0.1570;  13.7164;  16.0679;   5.9951;  30.7344;
  0.1580;  12.5408;  14.8440;   5.7675;  31.3758;
  0.1590;  12.3543;  14.6669;   6.2413;  32.0978;
  0.1600;  13.5421;  14.4529;   6.1377;  31.8892;
  0.1610;  13.0780;  14.5817;   5.9851;  31.7451;
  0.1620;  13.3998;  15.3338;   6.4248;  31.5725;
  0.1630;  12.8977;  13.9079;   5.3821;  31.1152;
  0.1640;  12.8975;  14.5758;   6.3609;  31.1874;
  0.1650;  13.8486;  15.2412;   9.9139;  32.1361;
  0.1660;  12.6133;  14.8154;  13.7331;  32.7215;
  0.1670;  12.4828;  15.0506;  14.6489;  31.9502;
  0.1680;  12.9693;  13.5495;  10.1776;  32.0354;
  0.1690;  12.5006;  13.6471;   4.9357;  32.2135;
  0.1700;  12.8292;  13.4842;  -0.6840;  30.4871;
  0.1710;  13.1773;  11.6656;  -4.2048;  29.4543;
  0.1720;  15.0756;  12.2639;   0.0569;  29.9875;
  0.1730;  15.2225;  12.2756;   4.2672;  31.2306;
  0.1740;  11.9136;  11.9935;   4.7276;  31.7613;
  0.1750;  12.2800;  13.6998;   5.6225;  31.2510;
  0.1760;  13.9327;  15.6458;   5.8183;  31.6887;
  0.1770;  13.3385;  16.5933;   6.3053;  31.4209;
  0.1780;  13.0815;  15.0256;   6.4757;  31.0370;
  0.1790;  12.7486;  12.9309;   5.9839;  31.9064;
  0.1800;  12.7085;  12.9751;   6.8912;  30.6505;
  0.1810;  12.1102;  13.7809;   6.2926;  29.6953;
  0.1820;  12.8400;  14.4233;   5.9444;  31.4968;
  0.1830;  14.2432;  15.2032;   6.8778;  31.8087;
  0.1840;  12.3818;  16.6247;   6.4123;  30.8607;
  0.1850;  14.5760;  20.2914;   8.0621;  31.7553;
  0.1860;  17.9705;  21.8165;   8.7896;  31.9639;
  0.1870;  15.3602;  16.5743;   5.9420;  29.9721;
  0.1880;  14.5716;  14.3568;   5.4449;  30.2015;
  0.1890;  14.8171;  18.0414;   5.9260;  31.8433;
  0.1900;  14.0671;  19.3088;   5.7845;  31.5994;
  0.1910;  14.2669;  19.6298;   6.3561;  31.5901;
  0.1920;  13.4588;  18.8311;   6.5246;  30.9255;
  0.1930;  14.8172;  17.4726;   7.0688;  30.7147;
  0.1940;  15.6819;  18.1696;   7.6694;  32.8166;
  0.1950;  14.7499;  16.5402;   8.4790;  32.7979;
  0.1960;  15.4909;  15.1119;   8.6646;  31.7201;
  0.1970;  15.3650;  14.8775;   7.4455;  30.8994;
  0.1980;  15.8564;  12.4426;   7.9574;  30.6532;
  0.1990;  16.1537;   9.9818;   9.3692;  33.2084;
  0.2000;  16.2464;  10.2177;  11.0417;  31.1415;
  0.2010;  17.0469;  15.3678;  12.5745;  26.7666;
  0.2020;  14.5686;  18.2378;  11.6310;  30.3970;
  0.2030;  14.7002;  15.5088;  10.8360;  33.8635;
  0.2040;  15.5221;  15.4020;  10.5909;  33.1857;
  0.2050;  12.0473;  16.3224;  10.4218;  33.8460;
  0.2060;  12.1356;  16.2060;  11.0659;  33.5942;
  0.2070;  12.7526;  16.1131;  10.8501;  33.8194;
  0.2080;  12.9154;  15.4843;  10.9908;  34.5050;
  0.2090;  14.9908;  16.3280;  10.7330;  32.5083;
  0.2100;  13.2744;  16.6622;   9.7613;  32.4555;
  0.2110;  12.7944;  16.7914;  10.3337;  32.9564;
  0.2120;  15.3975;  17.5321;  10.4218;  29.6418;
  0.2130;  15.7552;  17.0062;   9.3883;  28.5295;
  0.2140;  15.0487;  16.0590;   7.9121;  31.3380;
  0.2150;  14.9843;  15.0325;   7.1530;  32.0558;
  0.2160;  16.2080;  16.4834;   7.6925;  31.0981;
  0.2170;  15.5123;  18.5684;   6.8438;  31.7930;
  0.2180;  14.3596;  17.8933;   6.2097;  32.2261;
  0.2190;  16.1340;  16.5229;   7.4022;  31.7292;
  0.2200;  15.7237;  15.2096;   7.9964;  32.4358;
  0.2210;  15.5683;  21.8986;   8.0721;  33.0581;
  0.2220;  17.5280;  37.7044;   9.0801;  32.3354;
  0.2230;  16.3002;  45.8243;   9.0714;  31.3835;
  0.2240;  15.1145;  41.5600;   7.3608;  30.7090;
  0.2250;  15.7751;  34.5831;   8.8143;  30.9146;
  0.2260;  16.2731;  26.0936;  10.1112;  31.7691;
  0.2270;  16.6621;  13.7552;   7.7871;  32.0556;
  0.2280;  14.5932;   5.2369;   8.7456;  31.9023;
  0.2290;  12.6224;  -0.2855;   9.4647;  31.8068;
  0.2300;  13.6468; -10.6644;   7.0570;  31.3849;
  0.2310;  13.1958; -14.5257;   6.2864;  30.8727;
  0.2320;  12.9371;  -7.0251;   6.1459;  30.6899;
  0.2330;  15.0642;   1.0104;   8.3123;  30.1992;
  0.2340;  13.6151;   7.5724;   8.7191;  30.1214;
  0.2350;  11.7768;  11.7465;   5.7390;  30.8774;
  0.2360;  13.4831;  13.1864;   7.6846;  31.2731;
  0.2370;  13.5630;  13.6943;   9.1991;  31.4834;
  0.2380;  13.6907;  13.6396;   8.1684;  31.6238;
  0.2390;  14.1701;  14.8874;   9.7527;  31.8375;
  0.2400;  13.8020;  16.2020;   9.1713;  31.4790;
  0.2410;  15.6875;  17.2042;   8.2070;  30.5588;
  0.2420;  15.5191;  17.9684;   9.5614;  31.2636;
  0.2430;  14.3119;  18.9422;   8.8481;  31.7975;
  0.2440;  15.9255;  20.9323;   8.0561;  32.2789;
  0.2450;  16.3888;  20.0263;   8.4055;  33.2169;
  0.2460;  16.4499;  18.4240;   7.6151;  31.6301;
  0.2470;  15.8548;  18.5440;   8.4108;  31.9510;
  0.2480;  14.7093;  17.6790;   9.8587;  33.5272;
  0.2490;  15.2628;  17.4064;   8.1276;  32.0907;
  0.2500;  14.8028;  16.3666;   7.9012;  32.0034;
  0.2510;  14.5666;  14.2649;   8.9669;  31.8855;
  0.2520;  14.2009;  14.0257;   6.4867;  31.9300;
  0.2530;  12.9959;  14.7887;   5.3713;  33.3305;
  0.2540;  13.4979;  15.9695;   6.4125;  32.1024;
  0.2550;  12.5598;  15.7499;   7.2339;  32.2400;
  0.2560;  12.0571;  14.1802;   9.0791;  32.4904;
  0.2570;  13.8348;  14.6847;   8.5449;  29.9581;
  0.2580;  14.1435;  16.7496;   6.9893;  29.9590;
  0.2590;  14.5278;  16.9838;   8.4763;  31.3190;
  0.2600;  14.6458;  15.0315;   9.8907;  32.3066;
  0.2610;  14.8800;  14.4604;   9.6272;  32.6361;
  0.2620;  16.1726;  15.6441;   9.7666;  32.4117;
  0.2630;  14.8956;  16.6555;   9.5381;  33.2735;
  0.2640;  13.6124;  16.9581;   8.0118;  32.9617;
  0.2650;  13.9654;  16.8693;   8.4019;  32.5908;
  0.2660;  13.5474;  18.1649;   9.3382;  32.8160;
  0.2670;  13.7958;  18.3147;   8.9576;  32.9379;
  0.2680;  13.6145;  17.1042;   9.9087;  33.3951;
  0.2690;  12.1817;  17.8433;   9.1369;  31.6175;
  0.2700;  11.3507;  16.5425;   8.3005;  30.5794;
  0.2710;  10.5670;  13.6762;   9.9107;  30.7987;
  0.2720;  11.0477;  13.4750;   8.9983;  29.7798;
  0.2730;  12.9825;  13.6523;   8.5976;  30.4491;
  0.2740;  13.3691;  13.8367;  10.0200;  30.9572;
  0.2750;  13.7548;  14.2052;  10.2161;  30.6330;
  0.2760;  14.4531;  13.8949;  10.2470;  30.8736;
  0.2770;  12.9939;  14.2232;   9.6513;  31.0867;
  0.2780;  12.9934;  14.6060;   9.0914;  31.8426;
  0.2790;  14.5756;  15.0717;   8.0957;  31.5988;
  0.2800;  14.3132;  16.5875;   8.2253;  32.4030;
  0.2810;  15.0036;  16.2488;  10.1565;  33.3360;
  0.2820;  15.6974;  14.3336;  10.0060;  32.1519;
  0.2830;  13.8732;  14.7681;   9.9438;  33.4698;
  0.2840;  13.2526;  15.2612;   8.9110;  34.3781;
  0.2850;  14.2830;  15.1221;   7.2412;  33.2349;
  0.2860;  13.9056;  16.2013;   7.6833;  33.5413;
  0.2870;  13.5360;  15.6344;   6.7096;  33.8625;
  0.2880;  14.8244;  15.0359;   7.7306;  34.2930;
  0.2890;  14.0392;  15.2627;   7.3646;  32.2842;
  0.2900;  11.6928;  15.0287;   3.4643;  29.1326;
  0.2910;  12.3404;  17.2513;   5.2119;  31.1643;
  0.2920;  13.5490;  17.9764;   6.6569;  33.5998;
  0.2930;  13.5715;  16.9094;   6.0281;  32.4873;
  0.2940;  13.5780;  18.6748;   6.7569;  32.1909;
  0.2950;  13.3667;  17.6175;   5.3688;  32.5579;
  0.2960;  13.2641;  15.0279;   6.3508;  31.0552;
  0.2970;  12.4581;  16.2288;   6.8819;  30.3762;
  0.2980;  12.8208;  16.0361;   6.3452;  30.9452;
  0.2990;  13.7170;  14.9222;   8.7052;  31.0640;
  0.3000;  13.0439;  17.2114;   8.3910;  32.4933;
  0.3010;  15.6307;  20.7678;   9.8374;  30.8527;
  0.3020;  17.5510;  22.8758;  11.5442;  27.4118;
  0.3030;  13.6143;  21.2263;   7.0920;  29.5867;
  0.3040;  12.1872;  18.0528;   5.7529;  30.2322;
  0.3050;  14.4051;  18.0236;   7.2928;  29.2983;
  0.3060;  14.2783;  19.0097;   6.7358;  31.8837;
  0.3070;  13.7026;  19.8283;   6.9164;  30.6018;
  0.3080;  14.6118;  19.4973;   6.8518;  28.6362;
  0.3090;  14.5126;  14.9723;   6.2776;  30.1682;
  0.3100;  13.1986;  11.5766;   6.0727;  29.7884;
  0.3110;  12.6193;  12.1475;   6.3949;  30.1157;
  0.3120;  12.6439;  13.4091;   6.7554;  31.7679;
  0.3130;  12.1808;  14.9215;   5.7974;  30.4540;
  0.3140;  11.1913;  14.8952;   6.2029;  29.2954;
  0.3150;  10.8889;  14.7297;   7.9288;  30.6799;
  0.3160;  11.2817;  16.9081;   7.3170;  31.1050;
  0.3170;  11.4787;  19.3051;   6.8637;  31.0783;
  0.3180;  12.2000;  19.5451;   7.7728;  32.3049;
  0.3190;  12.9655;  18.3116;   7.0159;  32.7396;
  0.3200;  12.9809;  18.8227;   6.7589;  33.1135;
  0.3210;  12.1166;  17.3978;   7.4373;  32.4874;
  0.3220;  11.9326;  15.3063;   7.1300;  31.0085;
  0.3230;  13.5025;  15.9652;   7.6015;  32.2960;
  0.3240;  13.4174;  12.2544;   7.9407;  32.7181;
  0.3250;  13.8403;  16.1646;  10.3423;  31.9299;
  0.3260;  15.3658;  33.6195;  15.4714;  32.4338;
  0.3270;  12.9141;  43.3706;  14.8610;  31.3912;
  0.3280;  10.8749;  42.7289;   9.0941;  30.7482;
  0.3290;  10.6957;  37.1024;   4.1519;  30.4297;
  0.3300;   9.3928;  27.1234;   0.1062;  29.0331;
  0.3310;   7.2401;  16.4350;  -0.8764;  29.7083;
  0.3320;   4.1254;   5.6586;   3.1945;  30.9958;
  0.3330;   4.3385;  -0.9848;   7.2421;  31.5791;
  0.3340;   5.0575;  -8.1024;   6.7285;  31.4539;
  0.3350;   5.0437; -14.8664;   6.5525;  30.0529;
  0.3360;   9.0606; -10.2717;   7.1740;  29.0034;
  0.3370;   9.5151;  -1.4582;   5.6304;  28.9438;
  0.3380;   8.2513;   6.2100;   7.0449;  30.7264;
  0.3390;  10.3288;  11.0595;   8.0415;  31.8316;
  0.3400;  10.0601;  11.0272;   6.4577;  30.6742;
  0.3410;  11.1237;  12.5633;   7.8256;  31.3215;
  0.3420;  12.7958;  14.0110;   8.4121;  32.0508;
  0.3430;  12.1008;  15.6906;   8.2354;  31.6635;
  0.3440;  13.2649;  17.4924;   9.1318;  32.2073;
  0.3450;  14.2020;  15.7271;   9.2551;  31.5400;
  0.3460;  14.3647;  15.9314;   9.6455;  31.4413;
  0.3470;  13.8010;  16.2539;   8.4972;  32.5772;
  0.3480;  11.7823;  16.4532;   8.0559;  31.6735;
  0.3490;  11.4960;  18.2433;   9.2762;  30.3228;
  0.3500;  11.6727;  15.4148;   8.8506;  29.5815;
  0.3510;  10.9066;  14.3618;   8.4199;  29.8646;
  0.3520;  11.6444;  17.7458;   8.2636;  31.5442;
  0.3530;  13.2785;  16.9818;   8.5066;  32.0948;
  0.3540;  12.5120;  15.5612;   7.6157;  31.9047;
  0.3550;  11.9710;  17.7603;   6.6428;  31.9842;
  0.3560;  15.0881;  18.1901;   8.7812;  32.4398;
  0.3570;  17.8758;  17.0755;   8.7283;  33.5624;
  0.3580;  19.0860;  18.8478;   7.9354;  33.4739;
  0.3590;  19.1811;  19.3416;   8.3622;  33.1355;
  0.3600;  18.6362;  18.6457;   6.4496;  33.1311;
  0.3610;  19.6700;  19.8068;   6.3019;  32.3611;
  0.3620;  19.6759;  17.5238;   7.0040;  33.9416;
  0.3630;  19.1239;  15.0729;   6.8012;  37.3951;
  0.3640;  19.2392;  16.2614;   7.3306;  39.5099;
  0.3650;  18.0337;  16.8931;   7.2596;  40.1059;
  0.3660;  17.5109;  17.2246;   8.4680;  38.8629;
  0.3670;  17.7105;  15.8641;   8.7594;  37.5341;
  0.3680;  17.9178;  13.7652;   6.9425;  36.6936;
  0.3690;  17.9560;  14.0726;   6.1613;  35.2222;
  0.3700;  16.7505;  14.4354;   6.1443;  34.4206;
  0.3710;  16.1492;  14.5695;   7.5834;  33.6490;
  0.3720;  16.9063;  14.6972;   8.1190;  32.4640;
  0.3730;  17.6279;  14.6554;   7.4766;  31.9795;
  0.3740;  16.3664;  15.3223;   8.5725;  32.3164;
  0.3750;  14.8688;  15.7050;   8.2186;  32.7854;
  0.3760;  15.5007;  14.5746;   6.6441;  31.3314;
  0.3770;  15.2683;  13.6022;   7.1465;  29.1356;
  0.3780;  13.9676;  15.1660;   8.4748;  28.0439;
  0.3790;  13.4068;  15.4868;   8.8856;  27.5546;
  0.3800;  14.1727;  13.8085;   8.6466;  28.4211;
  0.3810;  14.6610;  14.1950;   7.8118;  28.6886;
  0.3820;  13.3313;  14.1889;   7.2804;  28.3864;
  0.3830;  13.7098;  13.6658;   8.5121;  29.3384;
  0.3840;  14.3171;  14.9707;   8.4149;  28.2056;
  0.3850;  13.6598;  15.4774;   8.0115;  27.5620;
  0.3860;  14.7807;  14.5471;   9.9203;  29.4073;
  0.3870;  16.4601;  14.4882;   9.9766;  28.0112;
  0.3880;  16.9110;  14.7031;   9.3221;  27.2962;
  0.3890;  15.4612;  13.8689;   9.4773;  29.9801;
  0.3900;  16.1463;  15.0532;  10.0668;  28.9156;
  0.3910;  17.3602;  16.4832;  11.0405;  26.3966;
  0.3920;  13.8528;  14.7853;   8.9452;  26.8461;
  0.3930;  13.0760;  14.6498;   8.3523;  27.9876;
  0.3940;  13.8717;  15.2126;   9.5946;  29.6642;
  0.3950;  12.8982;  14.5509;   8.3174;  31.1741;
  0.3960;  13.9456;  14.8716;   8.9290;  31.8236;
  0.3970;  12.8156;  14.1976;   8.9167;  31.5863;
  0.3980;  11.5985;  13.6231;   7.1059;  31.2576;
  0.3990;  11.9588;  14.4986;   7.4207;  32.6946;
  0.4000;  13.7871;  17.1968;   8.4518;  29.7409;
  0.4010;  17.0829;  20.7829;   9.2698;  24.0736;
  0.4020;  13.6064;  19.7954;   7.9884;  27.0144;
  0.4030;  10.6056;  16.9610;   7.3271;  30.8277;
  0.4040;  11.8144;  15.7437;   7.9271;  28.8801;
  0.4050;   9.8428;  14.3284;   6.5301;  29.0098;
  0.4060;  10.3182;  16.2630;   6.9088;  29.3220;
  0.4070;  11.2129;  20.4065;   6.8692;  28.9051;
  0.4080;  10.6776;  18.4805;   5.6386;  30.7332;
  0.4090;  11.8661;  11.6564;   6.2271;  30.4116;
  0.4100;  10.9865;   9.9076;   6.1082;  29.2148;
  0.4110;  10.2918;  12.8478;   6.8425;  30.2994;
  0.4120;  10.1671;  13.5362;   7.3066;  30.7135;
  0.4130;  10.3979;  14.5158;   8.0685;  30.5313;
  0.4140;  11.6933;  16.9415;   9.9402;  31.3339;
  0.4150;  11.4346;  17.9856;   7.6796;  31.9504;
  0.4160;  11.3127;  18.8248;   6.7320;  31.6592;
  0.4170;  10.3696;  19.2473;   8.7538;  31.2066;
  0.4180;   9.8524;  18.1194;   8.6333;  31.2264;
  0.4190;  10.3975;  15.7529;   7.8629;  31.0102;
  0.4200;   9.4663;  13.4899;   6.7495;  30.4275;
  0.4210;  10.3286;  12.9724;   7.5108;  30.8853;
  0.4220;  10.6433;  13.6669;   7.9349;  31.5738;
  0.4230;  10.7323;  13.9772;   6.5409;  31.7329;
  0.4240;  13.4470;  15.2779;   8.2600;  32.6650;
  0.4250;  14.0080;  18.1370;   8.7715;  32.8068;
  0.4260;  13.2098;  17.5456;   7.1440;  32.1064;
  0.4270;  13.2826;  16.1970;   6.3873;  32.5627;
  0.4280;  14.7693;  18.0524;   6.8914;  32.8885;
  0.4290;  15.7701;  16.5051;  10.6826;  32.8527;
  0.4300;  14.9608;  14.3749;  10.4909;  32.4817;
  0.4310;  16.5629;  15.2832;   6.5620;  32.1966;
  0.4320;  16.2301;  14.8868;   7.1248;  32.4655;
  0.4330;  12.9649;  15.4142;   7.6329;  31.7823;
  0.4340;  11.8642;  15.9106;   7.1396;  32.2531;
  0.4350;  11.2739;  19.2954;   7.1160;  32.7044;
  0.4360;  13.1994;  32.5792;   5.6524;  31.7542;
  0.4370;  15.8608;  44.4210;   6.5709;  32.9886;
  0.4380;  15.2084;  43.7748;   8.4315;  33.0371;
  0.4390;  14.2692;  36.6168;   7.8818;  32.0981;
  0.4400;  14.6387;  27.6506;   7.0914;  33.1052;
  0.4410;  15.6995;  16.5030;   6.7014;  32.8128;
  0.4420;  14.6988;   8.4013;   7.3631;  32.7430;
  0.4430;  14.0055;   2.4914;   7.7002;  32.5061;
  0.4440;  15.8441;  -6.9862;   7.1624;  32.2759;
  0.4450;  15.3460; -10.7426;   8.5622;  32.8824;
  0.4460;  14.6987;  -5.4238;   8.4079;  30.2779;
  0.4470;  15.4286;   0.4697;   6.8164;  29.8295;
  0.4480;  15.6706;   6.7255;   8.7887;  31.1893;
  0.4490;  16.1026;  11.0443;   9.8371;  29.2085;
  0.4500;  14.6786;  12.2549;   8.6515;  29.4876;
  0.4510;  14.3879;  13.5742;   7.8822;  29.8855;
  0.4520;  16.1165;  14.4690;   6.4730;  29.7100;
  0.4530;  15.2032;  15.5849;   7.2601;  31.4320;
  0.4540;  15.1890;  15.6475;   8.4239;  31.0265;
  0.4550;  17.6869;  16.1823;   8.1751;  31.9196;
  0.4560;  18.2171;  19.1459;   9.8382;  33.1040;
  0.4570;  17.3875;  20.1342;  10.6929;  31.7030;
  0.4580;  17.5117;  19.2188;  11.2451;  32.0320;
  0.4590;  18.0306;  17.9848;  12.5521;  32.2061;
  0.4600;  18.1606;  17.7776;  14.7378;  32.1948;
  0.4610;  17.6621;  19.1181;  20.3170;  32.4297;
  0.4620;  17.6447;  18.7424;  20.2160;  31.6909;
  0.4630;  18.1479;  17.6315;  12.6981;  32.5771;
  0.4640;  16.5768;  16.0618;   6.9042;  32.0658;
  0.4650;  14.5547;  13.9145;   1.5149;  30.0945;
  0.4660;  13.9563;  14.4858;  -0.1022;  30.4661;
  0.4670;  13.5074;  15.7452;   4.7798;  31.3986;
  0.4680;  14.6974;  15.3514;   7.5609;  31.8382;
  0.4690;  15.9749;  16.2933;   7.7568;  31.4258;
  0.4700;  15.7214;  18.8244;   9.2850;  31.5837;
  0.4710;  15.8888;  19.0012;  10.4156;  33.1159;
  0.4720;  15.4053;  17.3451;   9.8038;  33.3589;
  0.4730;  14.5165;  16.4192;   8.3674;  32.7881;
  0.4740;  14.1275;  15.9625;   7.3993;  32.5144;
  0.4750;  14.3040;  16.8955;   7.5366;  32.6751;
  0.4760;  14.6684;  17.5595;   8.4537;  32.8720;
  0.4770;  13.1058;  16.7583;   9.1156;  32.6364;
  0.4780;  12.0634;  15.8247;   8.0537;  32.5059;
  0.4790;  13.1950;  14.6252;   5.6519;  31.8761;
  0.4800;  13.3434;  15.0097;   5.6508;  32.0341;
  0.4810;  12.0881;  15.4509;   7.1100;  32.5272;
  0.4820;  11.7400;  15.4126;   6.4143;  31.9277;
  0.4830;  12.3519;  15.9205;   5.9274;  31.4643;
  0.4840;  12.3887;  14.2791;   5.5201;  30.6882;
  0.4850;  13.3341;  14.1213;   5.0996;  32.1285;
  0.4860;  13.7665;  15.2091;   6.2428;  33.5707;
  0.4870;  13.0950;  15.0764;   6.4703;  31.5533;
  0.4880;  14.0740;  15.3522;   7.1370;  32.2345;
  0.4890;  13.0472;  13.8164;   7.4343;  32.9624;
  0.4900;  12.5920;  15.8725;   6.9243;  32.1272;
  0.4910;  14.1761;  19.3315;   8.2834;  33.0227;
  0.4920;  13.0924;  18.3090;   7.5893;  31.6973;
  0.4930;  14.8687;  20.9109;   7.8851;  33.1943;
  0.4940;  15.4322;  20.8698;   9.3959;  33.5712;
  0.4950;  11.4449;  15.8272;   6.3678;  27.6131;
  0.4960;  12.1595;  16.2495;   5.9269;  29.4034;
  0.4970;  13.5318;  16.3289;   7.5114;  32.0046;
  0.4980;  12.3864;  12.4696;   6.5496;  29.0259;
  0.4990;  11.7653;   8.8879;   6.7708;  30.5854;
  0.5000;  13.4057;  10.8475;   6.5142;  27.4804;
  0.5010;  16.3228;  17.5668;   6.8692;  23.2550;
  0.5020;  13.1029;  17.3968;   7.7149;  28.2745;
  0.5030;  10.4371;  14.1142;   6.4541;  30.4799;
  0.5040;  12.6003;  15.6067;   7.1239;  30.0150;
  0.5050;  13.0923;  17.6839;   8.6778;  31.1127;
  0.5060;  14.9724;  18.9567;   7.9237;  29.6288;
  0.5070;  14.4000;  18.6613;   6.4638;  29.6761;
  0.5080;  12.3846;  17.5959;   6.4758;  30.9304;
  0.5090;  14.2722;  16.9264;   7.6144;  30.6102;
  0.5100;  13.1077;  16.5186;   7.4636;  31.1155;
  0.5110;  12.3449;  16.5579;   6.7897;  31.6300;
  0.5120;  13.3280;  14.6720;   6.4524;  30.9838;
  0.5130;  12.5709;  13.7560;   6.7550;  30.0269;
  0.5140;  14.0709;  14.6812;   7.5977;  29.9918;
  0.5150;  14.0363;  14.0188;   7.2120;  30.0866;
  0.5160;  12.9100;  13.6142;   7.1282;  29.4653;
  0.5170;  13.4757;  13.6415;   8.2224;  30.3250;
  0.5180;  12.4382;  14.1641;   8.8100;  31.2286;
  0.5190;  12.3647;  14.6908;   7.9307;  30.9287;
  0.5200;  13.4254;  13.7733;   7.3946;  31.2751;
  0.5210;  13.6521;  13.4918;   8.2208;  30.4205;
  0.5220;  12.9919;  12.9480;   7.1260;  30.0991;
  0.5230;  11.9681;  12.7138;   6.4747;  31.9743;
  0.5240;  12.4542;  14.5894;   6.8396;  30.4997;
  0.5250;  12.4979;  16.4768;   5.3205;  28.5750;
  0.5260;  13.0814;  17.3375;   6.0942;  30.8913;
  0.5270;  14.3313;  16.9267;   6.8030;  31.5934;
  0.5280;  12.9150;  17.0024;   5.8452;  30.7569;
  0.5290;  12.3653;  17.1198;   6.4276;  31.1622;
  0.5300;  13.2122;  15.9427;   5.5466;  30.0816;
  0.5310;  13.5259;  16.0936;   5.3875;  30.0051;
  0.5320;  13.9337;  15.2187;   6.1175;  31.1321;
  0.5330;  13.1324;  13.4886;   5.7890;  30.3648;
  0.5340;  13.3659;  14.3988;   6.3510;  30.9995;
  0.5350;  14.4242;  14.3431;   4.9295;  32.2674;
  0.5360;  14.5351;  13.3338;   4.9962;  31.7268;
  0.5370;  15.2344;  13.6702;   7.0067;  32.2004;
  0.5380;  14.4012;  15.2085;   6.0932;  32.3198;
  0.5390;  14.5278;  17.7596;   7.2447;  31.1351;
  0.5400;  16.1971;  16.5349;   7.8552;  30.8789;
  0.5410;  13.8035;  12.7947;   5.4075;  30.7176;
  0.5420;  12.5754;  12.5706;   5.6285;  30.8624;
  0.5430;  13.7086;  13.7214;   5.6755;  31.1234;
  0.5440;  11.6708;  15.3820;   5.8062;  31.1047;
  0.5450;  10.7711;  17.4626;   8.2892;  32.1497;
  0.5460;  11.7644;  16.6001;   8.1597;  31.8531;
  0.5470;  12.4841;  15.4287;   6.8609;  31.0888;
  0.5480;  13.5264;  17.2044;   8.2206;  32.4726;
  0.5490;  12.4775;  18.5420;   8.2874;  31.6809;
  0.5500;  11.2882;  15.5822;   6.2032;  30.1329;
  0.5510;  11.3080;  13.2225;   6.4540;  31.8666;
  0.5520;  11.1382;  21.4475;   7.0515;  32.5748;
  0.5530;  12.6568;  37.4284;   6.8849;  32.0360;
  0.5540;  13.4699;  46.9486;   8.4586;  32.5316;
  0.5550;  11.9844;  43.5955;   7.8218;  31.6999;
  0.5560;  11.7838;  33.8011;   6.1359;  30.5822;
  0.5570;  11.9644;  23.0171;   6.7853;  30.1145;
  0.5580;  10.3020;  10.6172;   6.2136;  29.1023;
  0.5590;   9.8218;   1.7559;   6.1481;  29.6688;
  0.5600;  11.3868;  -3.5385;   6.6872;  31.4591;
  0.5610;  11.3250; -11.9867;   5.5005;  31.9116;
  0.5620;  10.5875; -15.0096;   5.8219;  31.0450;
  0.5630;  10.5302;  -6.9112;   6.1276;  29.3619;
  0.5640;  10.1219;   3.3899;   5.6987;  28.4080;
  0.5650;  11.2715;   9.8748;   6.7184;  28.7040;
  0.5660;  12.6883;  11.7925;   6.8232;  29.3486;
  0.5670;  12.9081;  13.0506;   6.3363;  29.8837;
  0.5680;  13.1012;  14.4543;   6.6522;  29.4025;
  0.5690;  13.4602;  15.8072;   7.0818;  29.7580;
  0.5700;  14.1743;  17.5339;   6.8006;  30.7316;
  0.5710;  12.8476;  15.3483;   5.8911;  29.7028;
  0.5720;  12.2424;  15.3810;   6.4103;  29.1906;
  0.5730;  13.5872;  17.7988;   6.4530;  29.0225;
  0.5740;  11.8674;  15.0895;   5.6227;  27.6616;
  0.5750;  11.8590;  16.2393;   6.2547;  27.6958;
  0.5760;  12.8042;  19.2735;   5.5888;  28.2912;
  0.5770;  10.8608;  16.3460;   4.8439;  27.5369;
  0.5780;  12.3702;  14.5292;   6.0340;  26.9519;
  0.5790;  13.8199;  15.5298;   6.5634;  28.5735;
  0.5800;  12.1528;  17.0697;   6.3801;  30.1613;
  0.5810;  11.5825;  16.4285;   5.5082;  29.4979;
  0.5820;  11.5996;  14.7619;   5.5888;  28.8737;
  0.5830;  12.1770;  16.5186;   6.6034;  28.1381;
  0.5840;  12.0054;  17.1697;   5.8671;  28.8612;
  0.5850;  11.2366;  15.8697;   5.5160;  30.4303;
  0.5860;  10.6693;  15.4885;   5.8421;  29.1167;
  0.5870;  10.3735;  15.2878;   5.8106;  29.6922;
  0.5880;  12.3359;  15.2704;   5.4843;  30.6452;
  0.5890;  13.1042;  15.9773;   4.9630;  29.4555;
  0.5900;  12.3970;  18.1957;   5.6595;  30.7302;
  0.5910;  12.5981;  19.1184;   5.3752;  31.2811;
  0.5920;  12.9294;  17.8045;   4.8894;  30.9690;
  0.5930;  14.5282;  16.5537;   6.0487;  31.1153;
  0.5940;  15.3209;  18.4154;   7.2972;  31.4372;
  0.5950;  15.1635;  21.5365;   8.6830;  31.4398;
  0.5960;  14.8401;  19.5717;   8.4897;  27.9989;
  0.5970;  14.5435;  20.6647;   9.1432;  29.5320;
  0.5980;  15.4683;  20.9899;   8.4678;  31.8275;
  0.5990;  14.5559;  14.5315;   5.0311;  29.3084;
  0.6000;  15.5189;  19.8559;   8.2023;  33.6623;
  0.6010;  15.3512;  22.7436;   7.2530;  30.2049;
  0.6020;  10.1057;  12.8132;   0.4900;  20.9791;
  0.6030;  12.8982;  12.6961;   4.6590;  28.2925;
  0.6040;  16.3361;  13.0375;   7.5439;  32.8940;
  0.6050;  11.7554;  10.7410;   5.0371;  29.2647;
  0.6060;  11.5409;  14.3012;   6.7450;  30.6536;
  0.6070;  12.7335;  14.2301;   7.1400;  31.2166;
  0.6080;  12.1806;  14.5978;   7.7966;  32.0525;
  0.6090;  13.4772;  15.9777;   8.2508;  33.6580;
  0.6100;  15.1101;  16.4998;   7.7605;  35.4082;
  0.6110;  17.0357;  18.1140;   9.3786;  38.3143;
  0.6120;  15.7745;  16.3963;   8.9114;  37.5311;
  0.6130;  14.3416;  15.8381;   9.7062;  35.8245;
  0.6140;  15.1266;  15.9152;  11.3750;  34.7298;
  0.6150;  13.5110;  15.7668;  10.1104;  33.3443;
  0.6160;  12.6912;  16.6552;   9.9064;  33.0124;
  0.6170;  13.1337;  15.8515;  10.1395;  32.9445;
  0.6180;  13.1509;  17.9099;  10.7164;  32.8863;
  0.6190;  13.2029;  16.9667;  13.6006;  31.7163;
  0.6200;  11.9080;  13.6638;  17.5780;  31.8076;
  0.6210;  11.3546;  15.5663;  15.8258;  31.8093;
  0.6220;  11.4460;  14.4561;   7.7717;  29.7696;
  0.6230;  11.7099;  14.7248;   3.3284;  30.8495;
  0.6240;  12.7527;  18.3613;  -0.3320;  31.7228;
  0.6250;  13.1670;  17.5057;  -1.0798;  31.0228;
  0.6260;  13.5326;  16.6755;   5.9765;  31.6025;
  0.6270;  13.1168;  15.8285;   7.3495;  31.3165;
  0.6280;  13.4455;  15.1714;   5.8019;  31.6617;
  0.6290;  15.3615;  17.2160;   8.5989;  31.1115;
  0.6300;  14.5932;  18.3264;   9.0238;  29.8821;
  0.6310;  12.6662;  18.0368;   9.2484;  30.2271;
  0.6320;  12.5576;  18.1515;   9.6806;  29.8655;
  0.6330;  13.2368;  19.1783;   9.1883;  30.4905;
  0.6340;  13.5421;  17.9694;   9.5718;  30.4345;
  0.6350;  12.8696;  16.6108;   9.2522;  29.2878;
  0.6360;  12.5820;  18.6750;   9.3976;  29.5657;
  0.6370;  12.6403;  18.5789;   8.6730;  28.7981;
  0.6380;  12.8142;  17.7509;   7.5583;  29.1352;
  0.6390;  13.9536;  19.0602;   8.7664;  29.7772;
  0.6400;  13.6793;  17.4935;   8.8336;  28.5274;
  0.6410;  12.5521;  14.7649;   7.3836;  28.6321;
  0.6420;  14.2223;  16.1437;   6.9476;  29.0906;
  0.6430;  15.6852;  17.7407;   7.8990;  29.8554;
  0.6440;  14.5554;  15.2910;   9.1464;  30.4760;
  0.6450;  14.8484;  14.7718;   8.5448;  29.8828;
  0.6460;  15.8963;  16.4415;   6.9901;  30.3454;
  0.6470;  16.1755;  16.3968;   6.7795;  30.9001;
  0.6480;  17.0314;  17.0657;   7.3766;  31.3883;
  0.6490;  15.7272;  16.2562;   7.4836;  31.2454;
  0.6500;  14.9648;  15.3391;   7.8254;  29.6241;
  0.6510;  17.0835;  16.6267;   8.1070;  29.6714;
  0.6520;  15.9550;  16.7044;   7.3666;  31.1509;
  0.6530;  14.4706;  16.6117;   6.9391;  31.8029;
  0.6540;  16.1872;  16.0849;   7.9202;  31.4193;
  0.6550;  15.6850;  16.1747;   9.9543;  31.6053;
  0.6560;  13.5769;  16.5862;  10.3770;  31.9372;
  0.6570;  12.5558;  15.1735;   9.0146;  29.9724;
  0.6580;  11.9582;  14.8499;   8.2986;  29.0551;
  0.6590;  12.3264;  13.9668;   7.5288;  30.0658;
  0.6600;  13.2057;  14.7243;   8.0823;  30.1188;
  0.6610;  13.7993;  17.8231;   9.0810;  30.7629;
  0.6620;  13.4274;  17.4657;   7.9259;  31.2116;
  0.6630;  12.0033;  16.5953;   7.8170;  30.5120;
  0.6640;  11.9711;  16.8011;   9.1305;  30.2494;
  0.6650;  13.4027;  17.1553;   9.9999;  30.2035;
  0.6660;  13.9468;  15.0455;   9.5670;  30.5412;
  0.6670;  13.3360;  15.4672;   8.7338;  30.8004;
  0.6680;  12.1604;  29.2359;   8.7152;  30.5738;
  0.6690;  11.9849;  40.9491;   7.3097;  30.6667;
  0.6700;  12.8776;  40.9072;   7.2500;  30.8612;
  0.6710;  13.6709;  38.3667;   8.5915;  31.2331;
  0.6720;  15.2423;  30.5051;   8.2466;  31.9142;
  0.6730;  15.7350;  18.2183;   8.3702;  31.6644;
  0.6740;  15.0030;   6.4405;   6.7703;  30.3924;
  0.6750;  14.3448;  -0.0057;   5.4246;  30.5654;
  0.6760;  12.9940;  -2.3050;   6.3749;  31.8059;
  0.6770;  14.5582;  -9.3248;   5.5654;  31.7038;
  0.6780;  15.3528; -11.7802;   5.6993;  31.5514;
  0.6790;  12.6599;  -4.5876;   6.2159;  31.8557;
  0.6800;  13.4236;   4.4012;   6.2832;  31.9433;
  0.6810;  12.9982;  11.7045;   6.9910;  32.1169;
  0.6820;  11.4048;  13.2217;   5.6840;  32.1116;
  0.6830;  13.2474;  14.2775;   5.5648;  32.4507;
  0.6840;  12.1163;  16.4619;   6.1519;  31.8909;
  0.6850;  11.0735;  15.5702;   5.6553;  30.9089;
  0.6860;  11.8357;  16.1346;   5.9212;  31.5532;
  0.6870;  11.0822;  17.1183;   5.4999;  31.5218;
  0.6880;  10.8731;  16.7343;   5.8089;  31.5846;
  0.6890;  10.0711;  15.8596;   5.8731;  31.8757;
  0.6900;  10.3431;  15.2390;   5.4734;  30.7463;
  0.6910;  10.1968;  15.5846;   5.9671;  31.3272;
  0.6920;  10.1535;  14.4517;   5.4803;  30.9360;
  0.6930;  13.0407;  13.8600;   5.7864;  29.2548;
  0.6940;  12.5065;  13.6473;   5.1368;  30.6494;
  0.6950;  12.4876;  13.9807;   4.9677;  30.4995;
  0.6960;  12.7079;  15.4237;   6.5358;  29.3777;
  0.6970;   9.5661;  14.4149;   5.3800;  30.1100;
  0.6980;  11.2757;  15.3196;   7.1144;  30.8752;
  0.6990;  11.9843;  16.6712;   8.8607;  32.8060;
  0.7000;  12.1920;  16.7399;   6.9627;  30.7709;
  0.7010;  16.0397;  18.8587;   8.3728;  27.5350;
  0.7020;  13.6771;  16.5860;   7.1630;  30.7095;
  0.7030;  11.7105;  13.9965;   4.6098;  31.6109;
  0.7040;  12.9044;  14.9291;   6.0237;  30.0490;
  0.7050;  11.6384;  14.4644;   5.3884;  30.7536;
  0.7060;  12.5319;  15.9233;   4.9514;  29.5560;
  0.7070;  13.0312;  16.6220;   5.4162;  29.0084;
  0.7080;  12.1277;  15.3253;   5.2345;  29.0339;
  0.7090;  11.7626;  15.1847;   6.2874;  28.8698;
  0.7100;  11.3104;  14.1972;   6.1298;  30.1833;
  0.7110;  11.7323;  14.1865;   5.5978;  29.1623;
  0.7120;  11.0336;  14.9629;   5.6241;  28.1858;
  0.7130;  11.2199;  14.7310;   5.4490;  28.4920;
  0.7140;  12.5689;  13.4218;   5.5842;  27.7125;
  0.7150;  13.5741;  11.9025;   5.3360;  28.0827;
  0.7160;  14.8449;  11.7259;   5.3307;  28.6889;
  0.7170;  12.9593;  12.3742;   5.7238;  29.0920;
  0.7180;  11.7967;  15.9852;   6.4722;  29.7541;
  0.7190;  13.7890;  18.9610;   6.9479;  30.4277;
  0.7200;  13.9792;  16.8566;   7.0161;  30.6738;
  0.7210;  13.2508;  14.0642;   7.7735;  29.1340;
  0.7220;  12.5587;  13.3293;   7.4961;  29.4624;
  0.7230;  12.7440;  14.7696;   7.2576;  30.6304;
  0.7240;  13.6255;  14.2210;   8.4239;  29.9103;
  0.7250;  13.1814;  14.4639;   8.4934;  30.7233;
  0.7260;  12.8763;  19.1125;   7.1189;  31.4176;
  0.7270;  12.8051;  18.3026;   5.9852;  31.4354;
  0.7280;  13.1107;  16.8099;   6.3602;  31.3425;
  0.7290;  12.7259;  18.8171;   5.9332;  30.1493;
  0.7300;  10.7566;  15.6785;   4.2050;  29.8307;
  0.7310;  10.3730;  12.5318;   4.2383;  29.1237;
  0.7320;  10.6619;  10.1429;   4.8749;  29.1093;
  0.7330;  11.0079;   8.0130;   5.2008;  29.8204;
  0.7340;  12.6495;  10.7840;   5.1488;  29.3543;
  0.7350;  13.0139;  12.5211;   4.7778;  30.8884;
  0.7360;  12.1537;  13.5543;   5.0827;  31.3197;
  0.7370;  11.9476;  14.8703;   5.1890;  29.8111;
  0.7380;  11.7496;  13.1778;   5.9047;  30.4057;
  0.7390;  11.2134;  12.6681;   6.0364;  30.3484;
  0.7400;  11.5552;  13.2464;   6.0211;  29.6637;
  0.7410;  12.7068;  14.0776;   8.4560;  30.5997;
  0.7420;  12.9991;  16.5083;   8.3943;  31.9337;
  0.7430;  13.2153;  17.4290;   6.9491;  31.5966;
  0.7440;  13.7250;  16.8674;   8.8244;  31.0960;
  0.7450;  12.2678;  16.2609;  10.6935;  32.2547;
  0.7460;   9.9230;  15.4831;  12.2299;  31.8801;
  0.7470;   9.3536;  16.3361;  13.9697;  31.9189;
  0.7480;   9.4553;  17.4161;  16.6273;  32.6590;
  0.7490;   9.5920;  16.0472;  19.3649;  31.7411;
  0.7500;   9.9856;  15.2774;  15.4635;  32.5539;
  0.7510;   9.5667;  15.4493;   8.1533;  32.0307;
  0.7520;   9.7126;  14.9278;   3.1929;  30.6726;
  0.7530;  10.1308;  15.6356;  -0.4433;  31.5116;
  0.7540;   9.8367;  14.7429;   1.3501;  30.8938;
  0.7550;  10.4835;  13.3567;   5.6343;  31.1943;
  0.7560;  10.8310;  14.9014;   5.6118;  30.6505;
  0.7570;  11.8637;  14.4846;   5.9892;  28.8431;
  0.7580;  13.0684;  14.1151;   6.6080;  30.4138;
  0.7590;  11.5947;  15.4928;   5.3380;  30.4151;
  0.7600;  12.0214;  14.6295;   5.8041;  29.7584;
  0.7610;  13.5727;  15.1962;   6.0429;  30.9215;
  0.7620;  13.4367;  16.5752;   6.1639;  31.2916;
  0.7630;  13.9588;  15.6977;   7.2602;  32.6722;
  0.7640;  13.0325;  16.1246;   6.8395;  32.6557;
  0.7650;  12.8413;  17.9373;   7.0311;  31.3962;
  0.7660;  15.0367;  17.9280;   7.8560;  32.2709;
  0.7670;  15.6463;  15.9339;   8.2039;  32.5432;
  0.7680;  15.0735;  15.0137;   8.8765;  31.9481;
  0.7690;  14.1514;  14.8277;   8.6890;  31.7570;
  0.7700;  14.5752;  14.1889;   8.2767;  31.2377;
  0.7710;  15.8678;  15.2784;   7.7354;  30.6267;
  0.7720;  15.8641;  15.4392;   7.9310;  30.0568;
  0.7730;  16.7268;  13.9094;   8.4258;  29.6970;
  0.7740;  17.7611;  14.1129;   7.2007;  30.7396;
  0.7750;  18.3027;  14.3283;   7.3430;  31.6344;
  0.7760;  18.2772;  13.3476;   7.1320;  30.4316;
  0.7770;  17.3676;  12.6093;   5.5937;  30.3849;
  0.7780;  18.1373;  12.7622;   6.4514;  31.0174;
  0.7790;  18.6945;  12.9482;   6.7883;  30.3853;
  0.7800;  17.1342;  12.8534;   6.6481;  30.5844;
  0.7810;  13.8607;  13.0295;   7.2265;  30.6509;
  0.7820;   9.7482;  11.8962;   6.9865;  30.5537;
  0.7830;   8.3929;  12.7300;   6.8988;  29.6087;
  0.7840;   8.2776;  17.1901;   5.9401;  29.2368;
  0.7850;   7.5554;  18.3891;   5.5234;  31.8896;
  0.7860;   8.3142;  15.7356;   6.3568;  31.6616;
  0.7870;   9.4804;  13.2598;   6.3758;  30.7752;
  0.7880;   9.8891;  17.8862;   6.6230;  32.9175;
  0.7890;  10.0161;  34.3022;   7.0107;  33.4909;
  0.7900;  10.1327;  46.7205;   7.2999;  33.1322;
  0.7910;  10.2897;  44.1042;   7.1677;  32.1208;
  0.7920;  10.6680;  36.5944;   7.3864;  32.0724;
  0.7930;  10.6470;  27.2511;   8.0112;  31.9558;
  0.7940;  10.0339;  13.9067;   6.0982;  30.1183;
  0.7950;  10.5250;   3.1154;   4.3886;  31.1810;
  0.7960;  11.1780;  -1.8448;   5.4234;  31.1278;
  0.7970;  11.2701;  -7.6353;   7.4283;  30.6582;
  0.7980;  10.9796; -13.9893;   7.5924;  31.6437;
  0.7990;  10.7831;  -8.8091;   6.2205;  31.6239;
  0.8000;  12.2552;   2.8636;   7.0503;  33.0123;
  0.8010;  11.5292;   6.4044;   4.6617;  25.6373;
  0.8020;  10.6193;   8.1425;   2.2336;  19.9630;
  0.8030;  13.9242;  13.5419;   7.9509;  30.8114;
  0.8040;  14.6381;  16.4641;  10.5036;  34.1921;
  0.8050;  13.0172;  17.1352;   9.0128;  30.9641;
  0.8060;  12.9165;  18.0394;   9.6246;  33.3816;
  0.8070;  13.0110;  19.0438;   8.0841;  31.6492;
  0.8080;  13.9092;  19.6556;   7.5701;  31.9191;
  0.8090;  13.5962;  20.9971;   8.1733;  33.7842;
  0.8100;  13.2705;  22.0452;   8.0018;  32.2627;
  0.8110;  13.3399;  20.1421;   8.1650;  32.4446;
  0.8120;  11.6659;  19.5759;   6.4878;  30.9216;
  0.8130;  12.4447;  20.8571;   6.6051;  30.2086;
  0.8140;  14.0436;  20.6399;   8.9514;  31.8640;
  0.8150;  13.6221;  20.2950;   9.9729;  31.6119;
  0.8160;  13.7191;  18.8456;   9.7849;  31.7169;
  0.8170;  13.7633;  17.9127;   8.3159;  32.1869;
  0.8180;  13.9265;  18.5838;   7.3522;  32.2486;
  0.8190;  13.7492;  18.3699;   7.0312;  32.2275;
  0.8200;  12.7481;  18.2070;   7.5361;  32.0422;
  0.8210;  12.4230;  17.4120;   8.1155;  31.5023;
  0.8220;  12.4244;  18.2314;   6.7089;  31.2777;
  0.8230;  12.7608;  20.6667;   6.8152;  32.6862;
  0.8240;  12.5346;  19.8615;   7.2137;  32.7330;
  0.8250;  11.5590;  19.6553;   5.6118;  32.6386;
  0.8260;  11.9160;  21.4502;   5.5474;  33.5718;
  0.8270;  13.1936;  21.7737;   6.2842;  32.3964;
  0.8280;  13.1799;  20.4168;   6.3314;  32.0378;
  0.8290;  11.9602;  18.6803;   6.0683;  31.9484;
  0.8300;  11.7667;  19.1459;   6.2394;  30.8376;
  0.8310;  11.8736;  19.7672;   6.8838;  31.6132;
  0.8320;  11.8060;  19.6155;   6.0462;  32.0724;
  0.8330;  13.3937;  18.7506;   5.9414;  31.9243;
  0.8340;  14.8372;  14.8224;   7.2232;  32.3446;
  0.8350;  14.9489;  11.8670;   6.0344;  32.1704;
  0.8360;  15.0782;  12.3845;   4.5444;  31.7992;
  0.8370;  15.3664;  14.7071;   5.8383;  31.6420;
  0.8380;  15.4549;  15.7380;   6.7297;  32.1101;
  0.8390;  15.6952;  16.0623;   6.2228;  32.4431;
  0.8400;  16.2328;  18.8574;   6.3073;  31.5242;
  0.8410;  15.3160;  15.9680;   6.0683;  29.8164;
  0.8420;  14.0200;  11.2510;   5.5967;  29.3825;
  0.8430;  14.3473;  14.1855;   6.1167;  30.9079;
  0.8440;  14.6968;  15.5211;   7.2002;  31.2462;
  0.8450;  14.3413;  16.8302;   7.8468;  30.6493;
  0.8460;  13.0352;  19.9440;   7.0779;  30.8252;
  0.8470;  12.2653;  18.5324;   6.7231;  31.1449;
  0.8480;  13.1124;  18.4851;   7.1574;  31.8985;
  0.8490;  13.6978;  19.2734;   6.6083;  31.6073;
  0.8500;  13.9969;  18.0629;   6.4566;  30.6552;
  0.8510;  13.2587;  16.9022;   6.8197;  30.4230;
  0.8520;  11.9081;  15.7245;   6.7921;  30.1401;
  0.8530;  11.0744;  16.1730;   6.6714;  30.6656;
  0.8540;  10.5104;  15.7437;   6.6171;  30.8026;
  0.8550;  11.7098;  15.3797;   6.1491;  30.5945;
  0.8560;  12.3574;  15.7147;   5.4259;  31.2393;
  0.8570;  12.0300;  14.9789;   6.4217;  30.4102;
  0.8580;  12.6150;  17.1733;   7.0067;  30.1791;
  0.8590;  11.6319;  17.6667;   6.8907;  31.3623;
  0.8600;  10.4962;  15.4041;   7.7275;  30.4697;
  0.8610;  10.9618;  14.5393;   6.2868;  30.0552;
  0.8620;  11.9237;  12.3083;   5.2943;  30.7528;
  0.8630;  11.7413;  13.6589;   6.0951;  29.7095;
  0.8640;  10.4070;  16.0233;   6.6439;  29.4426;
  0.8650;  10.9891;  13.1081;   7.9507;  29.5930;
  0.8660;  10.8963;  14.7775;   8.7075;  28.4694;
  0.8670;  10.5817;  20.0016;  13.6041;  29.2648;
  0.8680;  11.9356;  18.4414;  18.1023;  30.5403;
  0.8690;  10.7652;  15.0225;  13.1078;  30.6674;
  0.8700;  10.6641;  15.6772;   7.1872;  31.5761;
  0.8710;  11.6011;  15.6696;   1.6743;  31.5981;
  0.8720;  10.6355;  14.6066;  -1.2487;  30.8537;
  0.8730;  12.5409;  15.6854;   3.9825;  30.3936;
  0.8740;  14.8583;  15.6133;   6.8174;  30.3643;
  0.8750;  15.3391;  14.4726;   6.6841;  31.0537;
  0.8760;  15.8007;  13.7455;   7.7994;  29.7368;
  0.8770;  15.6692;  12.7802;   7.2349;  28.3805;
  0.8780;  15.8037;  13.2514;   7.0031;  29.1246;
  0.8790;  15.4153;  13.2192;   6.8355;  29.2892;
  0.8800;  15.3477;  13.1935;   6.3203;  29.7361;
  0.8810;  16.3942;  14.2022;   5.8742;  30.5524;
  0.8820;  16.1721;  14.1356;   5.6081;  30.6144;
  0.8830;  14.6758;  15.0730;   5.8709;  29.8219;
  0.8840;  13.8859;  14.9350;   5.6603;  29.4404;
  0.8850;  13.8677;  13.7025;   6.2547;  30.7595;
  0.8860;  12.9833;  15.0645;   6.2668;  30.5364;
  0.8870;  13.9325;  14.9372;   5.9896;  30.2828;
  0.8880;  15.0082;  17.7936;   5.9181;  31.4654;
  0.8890;  13.2572;  31.9163;   5.4737;  31.3190;
  0.8900;  14.0680;  44.9719;   6.9768;  31.7886;
  0.8910;  14.9826;  43.9770;   6.2981;  31.5966;
  0.8920;  14.9946;  37.1760;   5.9754;  30.9501;
  0.8930;  15.4632;  29.4398;   7.5005;  31.9769;
  0.8940;  13.4146;  17.1945;   5.9730;  32.2672;
  0.8950;  14.4738;   7.5893;   8.2605;  32.7157;
  0.8960;  15.3526;   1.5434;   9.3346;  32.6256;
  0.8970;  15.1551;  -6.3871;   6.7237;  32.1623;
  0.8980;  16.7684; -13.2290;   7.3820;  31.1567;
  0.8990;  12.8564; -13.2208;   5.2330;  29.8016;
  0.9000;  16.7563;  -0.2620;   8.3445;  33.1702;
  0.9010;  23.8356;  11.5333;  12.5829;  32.7826;
  0.9020;  15.4381;   9.6009;   5.3985;  27.6212;
  0.9030;  13.7142;  11.3257;   5.1622;  28.6768;
  0.9040;  19.4626;  15.7635;   8.8417;  29.5852;
  0.9050;  16.6289;  13.2951;   5.3538;  29.7972;
  0.9060;  16.2151;  14.4057;   5.8655;  31.8235;
  0.9070;  16.5576;  16.8702;   6.6297;  31.0494;
  0.9080;  15.2100;  16.5959;   5.4772;  31.5885;
  0.9090;  17.2166;  18.3356;   6.7726;  32.1624;
  0.9100;  17.8883;  19.2863;   6.6400;  31.8568;
  0.9110;  17.7710;  17.9037;   6.4164;  32.0840;
  0.9120;  18.0510;  17.3518;   7.3737;  30.4049;
  0.9130;  18.2897;  18.8351;   8.1396;  31.1906;
  0.9140;  20.1196;  19.8010;   8.9391;  32.7818;
  0.9150;  20.8182;  20.3315;   8.8313;  31.9789;
  0.9160;  18.3207;  21.4111;   6.7997;  30.9174;
  0.9170;  17.4315;  20.4590;   5.2060;  29.3281;
  0.9180;  20.2151;  19.4308;   6.3051;  30.0230;
  0.9190;  19.7440;  19.6113;   6.4563;  31.8888;
  0.9200;  17.8641;  19.7445;   5.5166;  32.9493;
  0.9210;  19.6191;  20.3302;   5.8501;  34.1790;
  0.9220;  19.6401;  20.3467;   5.7448;  34.1170;
  0.9230;  18.2843;  19.0114;   5.6085;  33.7175;
  0.9240;  18.0849;  16.9034;   5.4216;  32.8345;
  0.9250;  17.5838;  17.9351;   5.3456;  32.7089;
  0.9260;  17.2882;  18.2520;   6.0011;  32.6504;
  0.9270;  17.1598;  11.7072;   5.9916;  31.2086;
  0.9280;  17.7134;   8.9347;   6.1666;  33.1368;
  0.9290;  17.5956;  11.7261;   6.1395;  33.3137;
  0.9300;  17.1886;  13.1506;   5.9778;  30.3523;
  0.9310;  17.7004;  14.9757;   6.9374;  30.6106;
  0.9320;  16.4658;  14.0490;   7.3024;  29.4591;
  0.9330;  15.9515;  14.1448;   8.1215;  29.0437;
  0.9340;  16.5969;  17.3575;   9.9052;  31.3874;
  0.9350;  15.5156;  15.5558;   9.4538;  31.1105;
  0.9360;  14.9415;  14.5556;   7.4309;  30.7195;
  0.9370;  14.5351;  15.7671;   7.2447;  30.1343;
  0.9380;  14.3443;  14.6062;   8.7209;  28.8681;
  0.9390;  16.0470;  16.0447;   8.9522;  28.3279;
  0.9400;  16.3331;  16.6947;   7.7650;  27.5403;
  0.9410;  14.0039;  15.4665;   6.7599;  28.0781;
  0.9420;  13.8791;  17.7867;   6.4443;  28.1690;
  0.9430;  16.2502;  18.4248;   7.0974;  27.8132;
  0.9440;  15.9148;  15.7204;   7.8992;  29.0059;
  0.9450;  15.1612;  16.1290;   8.4420;  29.9226;
  0.9460;  16.2141;  18.9622;   8.7361;  30.5485;
  0.9470;  15.5208;  18.5217;   7.9584;  29.7022;
  0.9480;  14.6006;  15.8910;   7.7766;  28.9391;
  0.9490;  13.4544;  16.2844;   8.3701;  30.3945;
  0.9500;  12.2495;  16.8523;   7.1237;  30.4918;
  0.9510;  14.0188;  14.6626;   6.3566;  30.2629;
  0.9520;  15.0437;  15.0558;   6.6817;  31.3462;
  0.9530;  14.7454;  17.7381;   6.1456;  32.0750;
  0.9540;  15.3557;  18.2336;   8.4101;  32.6976;
  0.9550;  14.4217;  17.3865;  10.1313;  32.2474;
  0.9560;  13.5073;  15.9007;   7.1699;  30.2857;
  0.9570;  14.5961;  15.9444;   6.8343;  29.1503;
  0.9580;  14.9432;  17.2907;   8.7308;  30.4682;
  0.9590;  13.7959;  15.5512;   8.8306;  31.5539;
  0.9600;  13.1555;  14.8184;   9.0047;  30.5190;
  0.9610;  12.9540;  16.7063;   9.0167;  30.4037;
  0.9620;  13.0027;  16.5983;  10.4194;  31.5915;
  0.9630;  14.3056;  17.2381;  11.3171;  32.4442;
  0.9640;  14.2571;  17.8356;   9.4981;  32.2990;
  0.9650;  12.5262;  15.5520;   8.6745;  31.6720;
  0.9660;  12.8927;  14.8737;   8.6418;  31.9001;
  0.9670;  13.8372;  16.0612;   8.9379;  31.9348;
  0.9680;  12.7958;  16.1821;   8.2866;  32.6683;
  0.9690;  11.7529;  15.7981;   6.9834;  33.1673;
  0.9700;  12.0906;  15.4567;   8.3651;  32.0234;
  0.9710;  12.2770;  14.6088;   8.2994;  32.3971;
  0.9720;  12.4510;  14.1639;   6.9799;  31.5053;
  0.9730;  14.0169;  15.6356;   7.3813;  29.9685;
  0.9740;  13.8731;  18.0779;   7.9798;  31.3624;
  0.9750;  11.6367;  19.5060;  10.0097;  31.3772;
  0.9760;  11.5929;  17.6625;  10.3311;  31.3824;
  0.9770;  11.9889;  15.0968;   9.8452;  32.1032;
  0.9780;  10.7727;  15.9073;  11.5101;  31.8870;
  0.9790;  10.6011;  15.9148;  10.3339;  32.4349;
  0.9800;  11.5487;  15.2947;   9.2999;  30.9521;
  0.9810;  12.8335;  16.5383;  10.1939;  30.4287;
  0.9820;  14.4400;  15.4146;   9.4875;  32.4323;
  0.9830;  15.0196;  14.4526;   9.3809;  32.3167;
  0.9840;  15.6711;  15.6234;   9.6367;  31.9707;
  0.9850;  16.7869;  15.5037;  10.4936;  31.4589;
  0.9860;  15.4847;  15.2294;  10.4016;  31.2250;
  0.9870;  14.7394;  15.6726;   7.6915;  31.8980;
  0.9880;  16.8247;  16.2068;   7.5470;  31.9792;
  0.9890;  15.9868;  15.6418;   8.0824;  32.8875;
  0.9900;  13.4903;  15.3566;   8.0033;  32.5253;
  0.9910;  14.1240;  17.0322;   9.2302;  32.0600;
  0.9920;  14.5380;  16.3920;   7.5066;  32.3185;
  0.9930;  14.1211;  14.2887;   7.0875;  31.9262;
  0.9940;  15.1813;  14.5315;   9.3448;  32.7170;
  0.9950;  15.0207;  15.2306;   7.5440;  31.4458;
  0.9960;  13.1574;  14.9862;   6.7272;  31.6109;
  0.9970;  13.1281;  14.8492;   7.9532;  32.7748;
  0.9980;  13.6295;  14.9975;   6.4844;  30.9598;
  0.9990;  12.5790;  15.0154;   6.1537;  33.4961;
  1.0000;  14.2778;  23.1642;   7.0655;  31.5797;
  1.0010;  17.5898;  40.2522;   7.6522;  27.0348;
  1.0020;  16.0558;  47.6033;   8.2785;  32.1829;
  1.0030;  13.7307;  43.4147;   8.3874;  33.5699;
  1.0040;  15.4444;  38.2282;  10.5152;  33.5637;
  1.0050;  15.5390;  28.0455;  10.5117;  34.5813;
  1.0060;  12.1829;  13.3074;   5.8333;  28.6031;
  1.0070;  11.3966;   2.9046;   4.6897;  29.2297;
  1.0080;  13.0476;  -2.0478;   6.4497;  32.6252;
  1.0090;  12.5755;  -8.5387;   6.0583;  30.4827;
  1.0100;  11.8094; -13.8152;   5.5243;  30.5611;
  1.0110;  12.5525;  -7.7091;   5.3988;  30.5434;
  1.0120;  12.4546;   2.8397;   4.9048;  30.4370;
  1.0130;  11.1503;   9.2898;   4.5893;  29.7553;
  1.0140;  10.1293;  13.3462;   4.5598;  29.1411;
  1.0150;  10.5991;  15.2131;   4.5844;  31.3264;
  1.0160;  11.2666;  16.9539;   5.3965;  30.8524;
  1.0170;  11.4808;  17.4147;   6.6505;  31.1897;
  1.0180;  12.3269;  16.2268;   6.7101;  32.3938;
  1.0190;  12.0243;  16.6460;   7.0141;  30.5858;
  1.0200;  12.2822;  16.9065;   7.9803;  31.0294;
  1.0210;  14.1403;  17.1879;   8.4916;  31.6878;
  1.0220;  14.0462;  17.4307;   8.9320;  31.4668;
  1.0230;  14.7080;  17.6650;  11.0430;  31.8576;
  1.0240;  16.0620;  18.4098;  15.7516;  31.0862;
  1.0250;  15.0286;  17.5645;  15.4643;  31.6999;
  1.0260;  14.9118;  18.3359;   9.2311;  32.2720;
  1.0270;  14.9686;  18.8235;   4.7309;  30.6177;
  1.0280;  13.8922;  16.8118;  -0.6329;  30.2875;
  1.0290;  13.4644;  17.4386;  -2.2472;  31.9012;
  1.0300;  13.6328;  17.2153;   2.9711;  31.4548;
  1.0310;  14.3624;  15.1183;   4.1151;  29.5259;
  1.0320;  13.2403;  14.1836;   4.3530;  29.8333;
  1.0330;  12.5499;  13.3691;   5.9109;  29.9404;
  1.0340;  14.7384;  14.8899;   4.7515;  30.4026;
  1.0350;  14.6194;  16.3233;   5.8171;  31.7461;
  1.0360;  13.9195;  15.9957;   6.1670;  29.9890;
  1.0370;  14.3738;  16.9294;   5.0852;  29.2588;
  1.0380;  13.4878;  17.4964;   6.0679;  29.9374;
  1.0390;  13.8308;  17.3265;   5.2685;  28.1477;
  1.0400;  14.1329;  16.9255;   4.7485;  27.7015;
  1.0410;  13.5999;  15.3389;   5.4488;  28.6332;
  1.0420;  14.2547;  11.6418;   5.6262;  27.9546;
  1.0430;  14.8382;   8.8017;   6.5398;  27.5161;
  1.0440;  16.0050;  11.2742;   6.3414;  29.2964;
  1.0450;  16.8670;  13.0312;   6.0299;  30.6284;
  1.0460;  16.3255;  12.1303;   5.9275;  29.4644;
  1.0470;  15.5072;  13.4811;   5.6675;  28.8571;
  1.0480;  14.6291;  13.5128;   7.5082;  29.9174;
  1.0490;  14.2300;  13.0527;   8.1183;  31.1083;
  1.0500;  12.5973;  14.8287;   6.7258;  30.9901;
  1.0510;  11.5113;  15.0735;   6.2924;  30.0177;
  1.0520;  12.8352;  14.6090;   5.7635;  29.5677;
  1.0530;  12.7399;  14.5033;   4.9738;  29.2022;
  1.0540;  12.8986;  13.3367;   4.7630;  29.7045;
  1.0550;  13.5963;  12.9050;   5.2193;  29.4866;
  1.0560;  12.5604;  14.1001;   5.3082;  29.2032;
  1.0570;  12.6827;  14.1166;   4.7645;  30.4811;
  1.0580;  13.2183;  13.3653;   5.0603;  29.7190;
  1.0590;  13.2678;  15.0370;   5.4005;  30.2509;
  1.0600;  13.5883;  15.5230;   5.6153;  31.0028;
  1.0610;  13.6077;  13.6300;   5.9965;  29.2172;
  1.0620;  14.1515;  13.7638;   6.0743;  31.5217;
  1.0630;  14.1713;  14.3630;   6.5186;  32.0511;
  1.0640;  13.8116;  14.9851;   6.2407;  29.3258;
  1.0650;  13.6062;  15.4578;   6.0856;  30.9221;
  1.0660;  12.9047;  13.7172;   7.3622;  31.7919;
  1.0670;  12.7397;  13.4150;   7.5314;  31.0392;
  1.0680;  13.0629;  14.1134;   7.4583;  30.9204;
  1.0690;  13.8458;  13.8221;   8.4463;  30.9739;
  1.0700;  12.7145;  14.2355;   8.2685;  31.4072;
  1.0710;  10.6959;  13.3421;   7.2496;  30.4439;
  1.0720;  12.1980;  12.6146;   6.7423;  30.4521;
  1.0730;  13.1828;  13.4336;   6.9709;  29.9496;
  1.0740;  13.4673;  13.1164;   7.6251;  28.6523;
  1.0750;  13.6890;  13.2269;   7.3606;  29.7528;
  1.0760;  11.1230;  13.7945;   6.8800;  29.4066;
  1.0770;  12.0162;  14.1160;   7.2682;  29.6648;
  1.0780;  14.3642;  14.7521;   7.0855;  31.0327;
  1.0790;  13.5403;  14.6470;   6.9493;  29.4839;
  1.0800;  13.9220;  15.1398;   7.6554;  28.9611;
  1.0810;  13.3989;  15.3764;   7.4250;  29.7066;
  1.0820;  12.1243;  14.3564;   6.9961;  29.4670;
  1.0830;  11.8089;  13.8053;   6.8703;  29.1657;
  1.0840;  11.3016;  13.6746;   6.4173;  29.9754;
  1.0850;  12.6118;  14.8865;   6.6733;  31.4305;
  1.0860;  12.8597;  15.4932;   6.5873;  30.3667;
  1.0870;  11.5746;  14.0902;   6.5242;  29.4293;
  1.0880;  11.5864;  13.0284;   7.6435;  30.5749;
  1.0890;  12.4521;  11.6889;   7.7833;  29.9272;
  1.0900;  13.8767;  11.5926;   7.6267;  29.0202;
  1.0910;  13.8349;  12.9246;   8.5623;  30.9372;
  1.0920;  13.3171;  13.2651;   8.5290;  32.2433;
  1.0930;  12.4140;  12.9959;   6.7715;  30.5037;
  1.0940;  12.1937;  12.4471;   6.3397;  30.2602;
  1.0950;  14.6056;  13.1799;   7.2951;  30.9153;
  1.0960;  13.1289;  13.1492;   6.2410;  29.6673;
  1.0970;  12.8471;  13.0299;   7.0978;  30.4851;
  1.0980;  15.6127;  14.1804;   8.7488;  30.9836;
  1.0990;  13.0178;  12.3724;   6.6982;  30.5081;
  1.1000;  16.6606;  16.3754;   9.9842;  32.4440;
  1.1010;  21.3819;  22.1626;  13.5201;  31.6021;
  1.1020;  13.9668;  15.7866;   7.8221;  28.6638;
  1.1030;  12.1624;  12.5255;   6.0031;  28.8697;
  1.1040;  16.9566;  16.1029;   9.2083;  31.1799;
  1.1050;  17.2722;  15.9636;  10.2399;  32.2480;
  1.1060;  16.7372;  15.7173;  11.0398;  31.1231;
  1.1070;  15.1550;  15.9851;   9.4703;  31.4964;
  1.1080;  15.9304;  18.2552;   8.7856;  31.1909;
  1.1090;  16.3066;  18.2288;   9.1308;  28.9966;
  1.1100;  11.3541;  14.6599;   6.9479;  30.3705;
  1.1110;  11.5810;  15.8253;   8.2386;  31.8663;
  1.1120;  14.4717;  15.4809;   9.8940;  31.2971;
  1.1130;  12.4669;  14.0805;   8.2384;  31.9891;
  1.1140;  12.1269;  14.4598;   8.1585;  32.0739;
  1.1150;  13.2398;  13.0128;   7.7938;  31.5851;
  1.1160;  12.7628;  15.9154;   7.3406;  32.2506;
  1.1170;  12.0602;  18.8544;   8.8484;  32.6347;
  1.1180;  10.7332;  18.1246;   9.4319;  32.2833;
  1.1190;  11.3368;  16.6954;   8.2995;  33.0393;
  1.1200;  12.8931;  15.2637;   6.6786;  33.8290;
  1.1210;  11.8078;  18.9525;   6.8123;  32.5443;
  1.1220;  12.2854;  20.1141;   8.4017;  32.0655;
  1.1230;  13.7405;  17.6479;   8.7055;  32.6797;
  1.1240;  12.4254;  18.6216;   8.6463;  32.1527;
  1.1250;  12.6963;  17.8345;   8.8760;  32.3032;
  1.1260;  13.3703;  17.9548;   7.9913;  33.1876;
  1.1270;  12.4046;  17.1552;   7.0700;  32.5973;
  1.1280;  13.2093;  15.1264;   7.7482;  31.0984;
  1.1290;  13.0667;  18.2446;   8.0950;  31.2941;
  1.1300;  12.2726;  17.7809;   6.8527;  32.2225;
  1.1310;  12.2835;  14.9109;   6.4765;  31.1827;
  1.1320;  11.2328;  14.3621;   7.1096;  30.1823;
  1.1330;  12.2594;  14.5773;   7.1823;  30.2582;
  1.1340;  12.6727;  16.4585;   7.5065;  30.4485;
  1.1350;  11.0494;  14.2615;   8.9099;  31.4539;
  1.1360;  11.8938;  18.4139;   9.8727;  32.1319;
  1.1370;  12.5654;  34.2464;   8.5274;  31.7120;
  1.1380;  13.3263;  42.5398;   6.9011;  31.5876;
  1.1390;  13.2123;  40.6871;   6.5549;  31.7840;
  1.1400;  10.7405;  35.4232;   6.5479;  31.3126;
  1.1410;  11.6073;  27.3082;   7.5258;  30.7172;
  1.1420;  12.1956;  16.4705;   7.6856;  31.0886;
  1.1430;  11.8381;   5.8695;   6.6937;  32.3695;
  1.1440;  13.4542;  -0.9353;   6.8913;  33.9597;
  1.1450;  11.4725;  -9.5168;   6.4063;  34.8873;
  1.1460;  10.4987; -13.7565;   5.7793;  34.7871;
  1.1470;  11.3178;  -7.0644;   5.8648;  33.5327;
  1.1480;  10.1462;  -0.2882;   5.9190;  32.9007;
  1.1490;  13.1571;   6.6989;   7.9998;  34.2966;
  1.1500;  14.6455;  13.0556;   8.3535;  33.6352;
  1.1510;  12.1634;  13.7360;   6.0370;  32.3240;
  1.1520;  12.6675;  14.5832;   6.3601;  33.8336;
  1.1530;  13.1730;  15.2208;   6.5665;  33.5949;
  1.1540;  15.0121;  15.2450;   5.6733;  33.0918;
  1.1550;  16.5444;  16.9830;   6.5172;  34.0777;
  1.1560;  14.3634;  18.7497;   7.1289;  32.4129;
  1.1570;  14.6510;  20.5738;   6.9258;  31.0703;
  1.1580;  14.4923;  20.4159;   6.2566;  31.4348;
  1.1590;  12.6969;  19.1029;   5.9490;  30.6015;
  1.1600;  12.8655;  18.9556;   6.8554;  29.7585;
  1.1610;  11.3508;  17.8320;   7.4193;  29.1529;
  1.1620;  10.2770;  16.2663;   7.1698;  27.4652;
  1.1630;  10.7509;  16.2074;   6.1586;  25.9106;
  1.1640;  10.5674;  16.8992;   5.8466;  26.8506;
  1.1650;  11.0183;  16.2740;   6.1684;  28.8268;
  1.1660;  10.3743;  15.7037;   4.9901;  28.9776;
  1.1670;   9.8296;  16.4590;   4.5824;  28.5398;
  1.1680;  10.4812;  15.8881;   5.5751;  28.6785;
  1.1690;  10.3673;  14.6603;   6.9062;  29.2410;
  1.1700;  11.0183;  14.0974;   8.3107;  30.3756;
  1.1710;  11.5967;  15.2815;   7.5160;  29.9624;
  1.1720;  11.3023;  17.3470;   6.7576;  27.3776;
  1.1730;  11.9390;  16.3183;   7.7579;  27.2230;
  1.1740;  12.4011;  15.9727;   8.0378;  29.5517;
  1.1750;  11.7738;  17.2227;   7.4703;  28.8966;
  1.1760;  11.2688;  16.3603;   6.4531;  27.5292;
  1.1770;  10.9936;  16.2331;   6.4440;  28.6795;
  1.1780;  10.5247;  15.5828;   7.1077;  29.0749;
  1.1790;  11.0729;  14.5678;   7.0308;  28.8784;
  1.1800;  12.0734;  15.8672;   7.6501;  29.6160;
  1.1810;  12.7166;  15.6067;   7.4029;  30.0183;
  1.1820;  13.4616;  14.4065;   6.4287;  29.5282;
  1.1830;  12.7240;  14.6990;   6.4765;  28.3825;
  1.1840;  12.2780;  15.9793;   6.1098;  27.2947;
  1.1850;  12.5261;  16.0502;   6.7957;  27.4584;
  1.1860;  11.0418;  13.3586;   7.8802;  28.2985;
  1.1870;  10.7501;  14.1788;   7.1147;  28.1368;
  1.1880;  11.4642;  16.5092;   6.9049;  28.6403;
  1.1890;  11.5251;  14.1066;   7.3071;  28.5216;
  1.1900;  11.0161;  14.1120;   6.6031;  27.3411;
  1.1910;  10.1333;  17.0486;   6.0594;  30.4658;
  1.1920;  12.1671;  17.9661;   6.3525;  32.4273;
  1.1930;  13.5067;  18.3651;   5.8687;  31.0924;
  1.1940;  12.7210;  17.0980;   5.5399;  31.4463;
  1.1950;  13.2606;  15.1272;   6.4667;  28.8527;
  1.1960;  11.7289;  14.3552;   5.7993;  28.0678;
  1.1970;  11.1459;  14.5991;   5.2312;  29.7703;
  1.1980;  12.1693;  17.0317;   6.1567;  29.0695;
  1.1990;  12.0349;  19.0106;   5.7288;  32.4092;
  1.2000;  16.5807;  18.9599;   7.0600;  29.8727;
  1.2010;  19.6368;  16.2504;   8.9648;  23.6708;
  1.2020;  15.4443;  10.4493;   7.0270;  30.0923;
  1.2030;  13.3746;   9.2188;   5.5654;  34.1434;
  1.2040;  14.5516;  13.1085;   5.4686;  30.4369;
  1.2050;  13.9694;  13.6776;   6.1814;  29.6917;
  1.2060;  13.4092;  13.2344;   8.8705;  30.6367;
  1.2070;  14.2498;  14.6170;   9.0941;  32.5025;
  1.2080;  14.3346;  15.2781;  10.8194;  32.4544;
  1.2090;  16.0885;  17.3596;  17.2686;  33.0134;
  1.2100;  17.3813;  17.1647;  15.4420;  34.0042;
  1.2110;  12.8944;  12.3033;   5.7213;  29.3748;
  1.2120;  11.3096;  12.4426;   0.5197;  28.3280;
  1.2130;  13.1264;  15.5389;  -1.3595;  31.1986;
  1.2140;  12.0825;  14.0769;   0.5124;  30.3604;
  1.2150;  12.7981;  12.7798;   5.3080;  30.4989;
  1.2160;  12.5757;  12.5511;   5.5346;  31.5139;
  1.2170;  12.3584;  12.2428;   6.1170;  31.1573;
  1.2180;  14.9064;  12.7909;   8.2317;  30.7678;
  1.2190;  14.1330;  13.1509;   6.6740;  30.8767;
  1.2200;  13.7320;  14.6160;   6.0127;  31.3632;
  1.2210;  14.1083;  14.0222;   6.1445;  30.6619;
  1.2220;  12.7184;  11.9484;   6.0472;  31.1433;
  1.2230;  13.3423;  13.1713;   8.2315;  32.5627;
  1.2240;  14.3309;  13.7724;   8.5103;  31.8765;
  1.2250;  15.2748;  15.5218;   6.7049;  31.6747;
  1.2260;  15.1956;  19.9342;   7.2915;  31.8997;
  1.2270;  13.8767;  19.8137;   8.7714;  31.4319;
  1.2280;  13.6351;  16.3517;   7.6216;  31.3337;
  1.2290;  12.8226;  15.2921;   6.1262;  30.3479;
  1.2300;  13.0235;  17.1758;   6.7248;  29.7987;
  1.2310;  13.2787;  17.3304;   6.5056;  30.4158;
  1.2320;  13.0319;  15.7586;   6.0587;  29.7127;
  1.2330;  14.2084;  17.0771;   6.8014;  28.9598;
  1.2340;  13.6572;  16.8558;   7.4394;  29.2056;
  1.2350;  13.5770;  14.6446;   7.2469;  29.4478;
  1.2360;  14.1680;  14.3463;   5.9014;  30.2887;
  1.2370;  13.2005;  13.6837;   6.3800;  30.4563;
  1.2380;  13.7198;  13.8947;   6.8610;  29.9160;
  1.2390;  14.6338;  14.5147;   6.3676;  30.7545;
  1.2400;  15.1582;  14.2637;   8.4340;  31.2547;
  1.2410;  14.8922;  14.8973;   8.2628;  31.0075;
  1.2420;  13.8349;  15.7316;   7.3489;  31.7936;
  1.2430;  13.2128;  17.0762;   8.2065;  32.5465;
  1.2440;  12.5489;  16.6530;   7.1511;  32.6143;
  1.2450;  14.0143;  14.7256;   8.0471;  32.6817;
  1.2460;  14.4756;  14.5947;   8.5686;  32.6784;
  1.2470;  13.5392;  14.7587;   8.5193;  32.4797;
  1.2480;  14.5800;  15.5692;  10.2334;  32.5259;
  1.2490;  13.4349;  15.1466;   7.9433;  32.3301;
  1.2500;  13.5248;  13.4739;   7.3179;  31.2513;
  1.2510;  15.4094;  13.8835;   8.6735;  30.2464;
  1.2520;  14.2312;  13.2625;   7.2725;  29.4897;
  1.2530;  13.6299;  12.8518;   7.7462;  28.9681;
  1.2540;  12.0395;  13.6866;   6.7871;  28.4024;
  1.2550;  10.1423;  13.3336;   5.7335;  27.4252;
  1.2560;  10.7412;  13.1943;   6.2390;  27.6241;
  1.2570;  10.3224;  12.4058;   4.6911;  28.6547;
  1.2580;  10.3698;  13.1696;   5.2487;  29.4998;
  1.2590;  10.6873;  14.6592;   5.7504;  29.7890;
  1.2600;  10.7972;  13.0323;   6.1664;  29.4708;
  1.2610;  12.6423;  12.7761;   7.8006;  29.9060;
  1.2620;  12.9425;  13.8976;   6.2268;  29.8385;
  1.2630;  11.4753;  15.1499;   5.9885;  29.8809;
  1.2640;  11.5538;  16.4050;   7.0674;  30.5179;
  1.2650;  12.7465;  14.7176;   6.7215;  29.7584;
  1.2660;  13.0723;  13.6812;   6.6146;  29.9670;
  1.2670;  13.8121;  14.6054;   6.3256;  29.7595;
  1.2680;  14.8568;  16.5922;   8.4835;  29.2634;
  1.2690;  14.2276;  17.5179;   9.4195;  30.7417;
  1.2700;  14.2032;  14.9046;   7.1995;  29.5246;
  1.2710;  14.1793;  21.1129;   6.9127;  29.3728;
  1.2720;  13.6264;  37.2000;   6.8730;  31.9692;
  1.2730;  13.4302;  44.1371;   7.0269;  31.1991;
  1.2740;  11.6331;  39.5035;   7.2114;  30.4720;
  1.2750;  11.8550;  31.9627;   6.7032;  30.3355;
  1.2760;  13.6849;  22.1360;   7.1267;  29.3586;
  1.2770;  13.0935;  11.3289;   5.8891;  29.8212;
  1.2780;  12.9390;   5.0914;   5.2815;  30.2778;
  1.2790;  13.8296;   0.2196;   6.7299;  30.8835;
  1.2800;  15.0080;  -9.4896;   6.3501;  31.3204;
  1.2810;  15.7030; -12.8725;   5.7155;  30.6410;
  1.2820;  15.8352;  -3.9338;   5.4191;  29.7835;
  1.2830;  16.1104;   4.1761;   4.6235;  30.6434;
  1.2840;  14.7138;   8.1533;   5.2584;  32.7953;
  1.2850;  13.1532;  11.6173;   6.2852;  31.8807;
  1.2860;  12.0706;  12.9220;   5.6260;  31.1877;
  1.2870;  11.9741;  13.8148;   5.8675;  32.6029;
  1.2880;  12.7826;  14.9925;   7.2480;  32.5862;
  1.2890;  11.2064;  15.3515;   6.2242;  33.3162;
  1.2900;  10.7625;  16.6840;   6.4312;  33.7224;
  1.2910;  11.9238;  18.2532;   8.4537;  34.0498;
  1.2920;  12.1570;  17.6971;   7.9164;  35.0080;
  1.2930;  12.3334;  16.4890;   8.0695;  33.9270;
  1.2940;  11.6774;  16.6756;   8.4784;  33.1400;
  1.2950;  13.4710;  17.7123;   7.4123;  32.6505;
  1.2960;  14.8053;  19.8330;   7.1532;  33.9401;
  1.2970;  13.9145;  21.7404;   6.4821;  34.8988;
  1.2980;  15.8894;  19.9527;   6.9011;  32.9856;
  1.2990;  15.7772;  17.1373;   7.2527;  34.3060;
  1.3000;  16.1715;  17.2312;   6.0397;  31.0128;
  1.3010;  18.3782;  17.8879;   7.5499;  25.5657;
  1.3020;  15.2954;  17.4117;   7.6635;  30.5458;
  1.3030;  14.8284;  15.8425;   4.8449;  33.1562;
  1.3040;  16.1788;  13.6302;   5.3070;  30.9517;
  1.3050;  13.1731;  13.6991;   5.9561;  31.2642;
  1.3060;  13.0395;  14.9817;   4.8093;  31.1453;
  1.3070;  14.3156;  14.5444;   5.4187;  31.5006;
  1.3080;  14.4919;  15.6838;   6.2892;  30.7204;
  1.3090;  15.5110;  17.6580;   6.6707;  31.1875;
  1.3100;  14.3595;  15.0210;   6.7474;  31.5394;
  1.3110;  13.9337;  13.2075;   6.0265;  29.4438;
  1.3120;  15.0675;  15.6462;   6.9647;  32.0798;
  1.3130;  11.9061;  14.8033;   7.9769;  31.1209;
  1.3140;  10.0063;  13.5976;   7.3087;  27.4178;
  1.3150;  13.8371;  15.7162;   8.0205;  30.8633;
  1.3160;  14.3483;  14.8415;   8.5888;  30.9839;
  1.3170;  12.3785;  13.8805;   7.7170;  29.3945;
  1.3180;  13.2254;  14.5703;   6.9814;  30.8742;
  1.3190;  12.8787;  14.1406;   6.3910;  30.0326;
  1.3200;  12.7971;  16.5875;   7.9381;  31.0544;
  1.3210;  13.4907;  18.1155;   9.8147;  32.3801;
  1.3220;  12.3240;  16.9097;   8.9794;  31.2512;
  1.3230;  12.1493;  17.8063;   7.9827;  31.6360;
  1.3240;  13.2225;  17.0973;   7.5455;  32.2844;
  1.3250;  13.9842;  15.7732;   7.1664;  31.8240;
  1.3260;  13.2447;  15.9342;   7.1996;  30.7212;
  1.3270;  12.7041;  15.4365;   7.5714;  30.0749;
  1.3280;  13.5708;  16.7717;   8.8800;  30.5596;
  1.3290;  12.5852;  16.5869;  10.6466;  31.4381;
  1.3300;  13.0313;  15.4930;  11.0537;  32.5219;
  1.3310;  14.8111;  19.1774;   9.0854;  32.5124;
  1.3320;  14.0206;  20.7102;   8.2600;  31.3624;
  1.3330;  14.5377;  18.8856;  10.0871;  31.2021;
  1.3340;  15.1169;  20.2674;  10.2793;  32.3852;
  1.3350;  14.5265;  20.7101;   9.7708;  32.1482;
  1.3360;  15.5231;  18.2577;  11.2194;  30.9632;
  1.3370;  16.0979;  18.3102;  12.4797;  31.6606;
  1.3380;  16.3204;  18.7122;  10.9787;  31.3414;
  1.3390;  16.4399;  14.4003;   8.0840;  30.2635;
  1.3400;  15.2599;   9.5064;   8.4151;  30.6701;
  1.3410;  14.0411;   9.6746;   8.9823;  30.1386;
  1.3420;  14.4019;  12.8292;   6.6570;  29.8976;
  1.3430;  16.5165;  13.8953;   7.0287;  29.9526;
  1.3440;  17.1001;  13.1844;   8.5858;  29.5533;
  1.3450;  14.9960;  14.3639;   7.4182;  30.1246;
  1.3460;  13.6267;  15.3664;   7.0452;  29.7693;
  1.3470;  13.9860;  14.8169;   7.4375;  29.7192;
  1.3480;  14.6601;  15.5257;   6.3512;  30.3300;
  1.3490;  15.8994;  16.0404;   5.8645;  30.4632;
  1.3500;  16.9489;  15.7527;   7.1274;  32.3493;
  1.3510;  16.1202;  15.5179;   7.6672;  32.5005;
  1.3520;  15.9506;  15.0529;   6.5272;  30.3191;
  1.3530;  16.3193;  15.7387;   5.5248;  30.6251;
  1.3540;  14.8463;  15.6081;   5.4104;  31.4119;
  1.3550;  14.3404;  14.3498;   5.8225;  31.6014;
  1.3560;  14.7319;  15.0725;   6.3706;  32.2811;
  1.3570;  14.5241;  16.0485;   6.3061;  31.6192;
  1.3580;  14.0894;  15.5173;   5.4344;  30.9032;
  1.3590;  13.1979;  14.8076;   5.5659;  32.0892;
  1.3600;  13.4494;  16.0004;   7.1913;  33.1619;
  1.3610;  14.5264;  17.9192;   7.7014;  32.2154;
  1.3620;  15.4888;  16.9331;   7.3341;  30.8139;
  1.3630;  14.3897;  16.2641;   7.7652;  30.9967;
  1.3640;  11.7059;  17.1646;   7.6353;  31.3766;
  1.3650;  13.0523;  15.0663;   6.3561;  31.0173;
  1.3660;  14.2684;  13.6575;   5.9203;  30.8697;
  1.3670;  11.8191;  15.5560;   6.6322;  30.1252;
  1.3680;  11.4089;  15.7601;   6.4212;  29.4955;
  1.3690;  12.7818;  14.7016;   6.3151;  29.5532;
  1.3700;  14.0441;  14.3853;   6.6116;  28.6419;
  1.3710;  14.9305;  14.0881;   5.5279;  29.1694;
  1.3720;  15.1400;  14.2195;   5.3981;  30.8337;
  1.3730;  14.5357;  14.1297;   5.8541;  29.5678;
  1.3740;  12.5972;  14.0835;   5.6703;  28.3056;
  1.3750;  12.1802;  13.9816;   6.4907;  28.1739;
  1.3760;  12.6012;  13.4519;   6.3376;  26.6660;
  1.3770;  11.7334;  14.1218;   5.3881;  26.9561;
  1.3780;  11.2664;  14.2054;   4.9486;  28.4075;
  1.3790;  11.0830;  13.9340;   4.7285;  27.5542;
  1.3800;  10.9831;  14.4519;   5.3843;  28.4190;
  1.3810;  10.8793;  13.2699;   4.9008;  30.4463;
  1.3820;  10.5937;  13.4176;   4.1280;  29.5717;
  1.3830;  10.0480;  14.6856;   5.0294;  30.9796;
  1.3840;  10.2007;  13.7012;   5.7229;  33.8986;
  1.3850;  11.1775;  13.5833;   5.6208;  33.4325;
  1.3860;  10.4075;  13.4419;   5.3726;  33.2897;
  1.3870;  10.9621;  12.7298;   6.0758;  32.2397;
  1.3880;  12.3219;  13.4649;   6.4891;  31.2393;
  1.3890;  11.2593;  13.7898;   5.9548;  32.5236;
  1.3900;  11.5073;  13.8583;   6.2088;  30.4363;
  1.3910;  11.1317;  14.2626;   6.1593;  30.1674;
  1.3920;  10.6145;  15.0708;   5.9579;  31.9592;
  1.3930;  11.5371;  14.6572;   5.4801;  29.2463;
  1.3940;  10.9079;  12.9783;   5.0354;  28.8534;
  1.3950;  11.4622;  13.7448;   5.8814;  29.5097;
  1.3960;  11.0152;  13.8793;   5.7042;  28.6406;
  1.3970;  11.2089;  13.3622;   5.6936;  28.7623;
  1.3980;  13.4033;  14.3175;   6.0299;  27.6507;
  1.3990;  11.6654;  13.6213;   6.3451;  28.5284;
  1.4000;  14.7761;  15.6695;   9.5616;  26.1778;
  1.4010;  20.0093;  17.7312;  13.4681;  22.0653;
  1.4020;  16.6662;  14.1268;  16.3461;  27.1836;
  1.4030;  14.5835;  13.2863;  14.4339;  29.3874;
  1.4040;  15.3594;  14.3183;   7.3113;  26.4469;
  1.4050;  14.7565;  13.4069;   2.5654;  27.8215;
  1.4060;  14.9220;  15.3764;  -0.6828;  28.4025;
  1.4070;  14.6641;  16.9124;   0.0263;  29.7220;
  1.4080;  14.2336;  16.2126;   5.7487;  31.5884;
  1.4090;  14.0045;  16.0703;   7.6586;  31.1909;
  1.4100;  13.9995;  14.8974;   8.6305;  31.8903;
  1.4110;  13.8188;  14.7773;  10.4922;  31.3814;
  1.4120;  14.2693;  15.8238;   9.8196;  31.1001;
  1.4130;  15.5603;  14.5112;   9.1941;  31.8526;
  1.4140;  15.7784;  14.9721;   9.8831;  30.9937;
  1.4150;  16.2609;  16.6737;  11.9389;  30.6895;
  1.4160;  13.7879;  14.1596;  11.8242;  30.0171;
  1.4170;  11.3541;  12.3722;   9.7229;  29.7523;
  1.4180;  13.7708;  13.2185;   8.7432;  30.3077;
  1.4190;  13.1276;  13.3254;   7.8789;  29.5301;
  1.4200;  12.5209;  13.2383;   9.6678;  30.3354;
  1.4210;  13.3356;  12.3426;  10.2732;  31.4649;
  1.4220;  11.8183;  13.5526;   8.6892;  30.9417;
  1.4230;  14.4683;  17.2294;  10.4909;  31.2865;
  1.4240;  15.3559;  18.6050;  10.7914;  31.7318;
  1.4250;  13.6918;  17.9737;  10.7992;  31.9413;
  1.4260;  16.2661;  15.6475;  11.3459;  32.3873;
  1.4270;  16.6695;  15.4084;   8.6235;  32.2479;
  1.4280;  16.0118;  18.6112;   9.5513;  31.9721;
  1.4290;  15.8121;  22.2960;  11.3818;  31.9250;
  1.4300;  14.8961;  32.9936;   9.1712;  31.9987;
  1.4310;  16.0930;  45.1704;   8.4678;  32.1320;
  1.4320;  15.7402;  45.4793;   8.8293;  32.2559;
  1.4330;  15.6205;  39.2581;   9.1280;  32.0290;
  1.4340;  16.5695;  31.3039;   9.2908;  32.2906;
  1.4350;  14.5255;  20.4710;   8.8462;  33.6253;
  1.4360;  13.4877;  10.1773;   9.6683;  33.6968;
  1.4370;  13.6763;   1.9407;  10.5790;  33.2284;
  1.4380;  13.0380;  -5.7062;  10.6780;  33.8167;
  1.4390;  13.0176; -11.2317;  10.3791;  33.1474;
  1.4400;  12.5845;  -9.0455;   9.8632;  31.8367;
  1.4410;  12.3082;  -0.6881;   8.9967;  30.8646;
  1.4420;  13.4983;   7.0562;   7.9882;  29.8686;
  1.4430;  14.9169;  11.7784;   8.4302;  30.7108;
  1.4440;  15.5026;  12.8834;   8.2019;  31.9496;
  1.4450;  16.1281;  13.1477;   7.2802;  31.7763;
  1.4460;  16.5878;  13.5033;   8.3342;  30.9262;
  1.4470;  15.8222;  14.4020;   8.4363;  29.8134;
  1.4480;  15.5489;  18.0520;   7.3672;  30.6692;
  1.4490;  15.9824;  18.9874;   7.9157;  32.2958;
  1.4500;  16.3899;  18.1298;   9.2854;  32.1756;
  1.4510;  17.2599;  19.8125;  10.0085;  32.6436;
  1.4520;  17.4488;  19.4398;   9.7013;  33.6941;
  1.4530;  17.1028;  19.0129;   9.4289;  34.3236;
  1.4540;  16.9600;  18.6724;   8.4408;  34.5662;
  1.4550;  16.5552;  15.6214;   6.9822;  33.4281;
  1.4560;  15.5229;  14.5877;   7.4608;  32.9230;
  1.4570;  13.7159;  14.1852;   7.3518;  33.5667;
  1.4580;  13.0842;  14.5920;   6.5838;  32.9691;
  1.4590;  14.1531;  17.2446;   7.4486;  32.0418;
  1.4600;  14.8137;  16.4667;   7.0709;  32.3276;
  1.4610;  14.5714;  15.8639;   6.1971;  32.2986;
  1.4620;  13.6372;  17.7207;   6.8118;  31.7108;
  1.4630;  13.5240;  17.0641;   7.4189;  32.6935;
  1.4640;  14.1455;  17.3410;   7.8502;  33.0125;
  1.4650;  12.8100;  19.1989;   7.1714;  31.7647;
  1.4660;  12.6933;  18.5224;   6.6662;  32.4509;
  1.4670;  15.5834;  17.6628;   7.6946;  32.9789;
  1.4680;  16.4909;  18.2915;   7.9883;  32.0668;
  1.4690;  15.3912;  18.0551;   8.2928;  31.4486;
  1.4700;  14.7421;  17.7301;   8.8873;  30.8994;
  1.4710;  15.3402;  19.2514;   9.4895;  31.3965;
  1.4720;  16.5412;  19.3546;  10.3151;  31.2146;
  1.4730;  16.4018;  18.1929;  10.0479;  30.8338;
  1.4740;  17.3421;  19.1192;  11.0157;  31.9372;
  1.4750;  16.8921;  18.6333;  10.9711;  31.0526;
  1.4760;  14.0592;  17.4652;   8.4917;  30.2589;
  1.4770;  16.0855;  18.5105;   9.6203;  31.5080;
  1.4780;  17.7230;  17.7951;  10.9941;  31.9856;
  1.4790;  16.3466;  16.6150;  10.6294;  31.5613;
  1.4800;  16.5160;  17.7423;  10.3915;  30.3915;
  1.4810;  14.4485;  18.5831;   7.8053;  30.4992;
  1.4820;  14.7633;  18.0761;   8.1745;  31.9936;
  1.4830;  17.1387;  17.3952;   9.6090;  32.9513;
  1.4840;  15.8234;  17.6447;   8.0617;  33.6073;
  1.4850;  16.6441;  17.9876;   9.6645;  32.9476;
  1.4860;  16.5484;  18.7404;  10.4148;  32.8282;
  1.4870;  15.1352;  19.4725;   9.5263;  33.4993;
  1.4880;  16.1215;  18.4308;   9.9672;  32.9632;
  1.4890;  13.9403;  17.6609;   7.8327;  32.8566;
  1.4900;  12.6144;  16.2009;   7.4462;  32.6359;
  1.4910;  13.2620;  14.7833;   8.1662;  32.1430;
  1.4920;  12.0875;  14.5858;   7.3712;  31.2074;
  1.4930;  12.6703;  12.1380;   8.3940;  30.7137;
  1.4940;  14.0562;  13.7790;   7.5914;  32.3383;
  1.4950;  15.7594;  17.7091;   7.2949;  32.1871;
  1.4960;  16.2359;  15.4224;   8.9202;  32.0809;
  1.4970;  14.8968;  15.4610;   8.0346;  33.0245;
  1.4980;  15.4999;  15.8929;   8.2727;  32.2284;
  1.4990;  15.3103;  13.1270;   8.9162;  33.1315;
  1.5000;  17.1152;  16.7835;   9.7009;  32.2413;
  1.5010;  20.3435;  18.9126;  11.6997;  30.3055;
  1.5020;  16.4650;  14.7930;   9.2697;  32.3646;
  1.5030;  13.2812;  14.4195;   6.8821;  32.8393;
  1.5040;  14.3911;  15.5906;   7.5929;  33.2061;
  1.5050;  13.0921;  15.5537;   6.9644;  34.0691;
  1.5060;  14.4959;  16.8048;   8.4848;  33.2004;
  1.5070;  17.3503;  16.6852;   9.8935;  34.1652;
  1.5080;  15.4892;  14.8902;   8.3942;  33.4546;
  1.5090;  14.7606;  14.4194;   9.3234;  32.4370;
  1.5100;  15.1624;  14.8189;   8.9102;  32.9248;
  1.5110;  13.4603;  15.7848;   6.0501;  31.3250;
  1.5120;  13.3011;  16.4746;   6.2258;  31.4446;
  1.5130;  13.3093;  14.6996;   6.6412;  31.9212;
  1.5140;  13.8725;  15.1595;   6.7639;  31.9349;
  1.5150;  15.5425;  17.6141;   6.8284;  31.9838;
  1.5160;  14.9893;  17.0699;   6.2699;  29.7365;
  1.5170;  17.3152;  19.2105;   9.5576;  31.7505;
  1.5180;  19.5060;  21.9653;  11.7121;  33.2936;
  1.5190;  15.3733;  20.0249;   8.9306;  30.0358;
  1.5200;  14.0017;  19.4126;   7.7868;  31.4790;
  1.5210;  15.5211;  19.9587;   8.4217;  32.6069;
  1.5220;  14.3609;  19.6520;   8.5866;  31.3007;
  1.5230;  13.4766;  18.7232;   7.6905;  32.3889;
  1.5240;  13.1536;  17.6870;   7.2173;  31.9066;
  1.5250;  12.8865;  17.9298;   8.2342;  31.7605;
  1.5260;  12.2196;  13.4081;   6.6047;  31.3797;
  1.5270;  11.9281;   7.9438;   5.5485;  30.2780;
  1.5280;  13.0054;   9.6608;   6.9494;  31.8299;
  1.5290;  12.7504;  12.2989;   6.5403;  30.2851;
  1.5300;  12.0390;  13.5669;   6.3610;  27.9794;
  1.5310;  11.8152;  13.7174;   5.9498;  29.8298;
  1.5320;  11.4297;  12.6716;   5.4873;  30.3358;
  1.5330;  11.5751;  14.0468;   6.2775;  29.7680;
  1.5340;  11.7019;  15.6927;   5.7779;  30.2692;
  1.5350;  12.1559;  16.9002;   6.1236;  30.0852;
  1.5360;  12.3916;  16.6193;   6.7953;  28.8484;
  1.5370;  12.5609;  13.5344;   6.3803;  28.3949;
  1.5380;  13.3740;  13.2165;   6.4179;  29.6084;
  1.5390;  13.3779;  14.7661;   6.3030;  29.7444;
  1.5400;  13.4025;  14.2281;   7.2200;  29.7880;
  1.5410;  14.1066;  13.3959;   7.4378;  30.3664;
  1.5420;  15.3867;  13.3341;   6.8210;  29.8084;
  1.5430;  15.7209;  13.2094;   7.4142;  29.8794;
  1.5440;  13.2856;  13.3627;   6.4344;  29.0558;
  1.5450;  12.3838;  16.7552;   6.1701;  28.6150;
  1.5460;  14.2095;  19.8903;   8.0389;  30.3945;
  1.5470;  14.4604;  17.2819;   8.1530;  30.2607;
  1.5480;  12.7867;  15.0694;   6.8866;  29.9487;
  1.5490;  11.9129;  16.2854;   6.8159;  30.2810;
  1.5500;  12.7768;  16.1566;   7.8530;  30.0718;
  1.5510;  12.5549;  15.5693;   7.1235;  30.9013;
  1.5520;  11.3108;  16.0271;   6.1153;  31.0890;
  1.5530;  11.8061;  15.7920;   6.6159;  31.8208;
  1.5540;  12.1054;  15.2331;   6.4384;  32.0832;
  1.5550;  11.6008;  14.6694;   6.1419;  30.5848;
  1.5560;  13.3169;  13.6123;   5.6953;  30.7739;
  1.5570;  15.4528;  13.2567;   6.2293;  29.7442;
  1.5580;  14.6328;  13.4987;   6.6736;  28.3370;
  1.5590;  13.9935;  13.4190;   5.2402;  29.3104;
  1.5600;  14.0056;  13.0553;   6.2956;  29.7943;
  1.5610;  12.2009;  12.4178;   6.5870;  30.2783;
  1.5620;  11.8796;  13.0976;   6.1288;  29.7275;
  1.5630;  12.1666;  14.0035;   9.4369;  29.7518;
  1.5640;  11.9063;  13.2539;   9.4155;  30.9816;
  1.5650;  13.2380;  13.3815;   7.6457;  29.9088;
  1.5660;  13.3108;  14.2018;   8.5097;  30.4580;
  1.5670;  12.9936;  14.7558;   7.6538;  30.2215;
  1.5680;  13.3592;  15.3732;   6.9758;  27.5089;
  1.5690;  13.0371;  14.7351;   7.3160;  28.7677;
  1.5700;  12.6888;  14.1983;   7.0317;  29.7949;
  1.5710;  12.2387;  14.3014;   6.9253;  28.9791;
  1.5720;  14.3494;  14.2437;   7.1327;  29.6796;
  1.5730;  14.7684;  14.8730;   7.9872;  29.9334;
  1.5740;  11.3213;  15.9834;   8.1623;  29.8385;
  1.5750;  11.8027;  16.5695;   7.9348;  29.9421;
  1.5760;  12.8044;  15.3813;   8.4266;  30.6912;
  1.5770;  12.5192;  14.2538;   8.3046;  29.9375;
  1.5780;  13.7013;  14.2467;   7.9821;  28.5455;
  1.5790;  13.5573;  13.4987;   9.0663;  30.8653;
  1.5800;  14.1134;  13.5092;   9.6144;  31.4526;
  1.5810;  14.0081;  13.4541;   7.9604;  29.8413;
  1.5820;  12.7037;  12.8856;   7.6760;  29.9498;
  1.5830;  12.4602;  13.9780;   7.7837;  29.4219;
  1.5840;  11.9352;  14.4460;   6.7052;  30.5841;
  1.5850;  13.2528;  14.2304;   7.3838;  31.9234;
  1.5860;  13.5639;  14.1783;   6.6621;  31.0344;
  1.5870;  12.5366;  14.4563;   5.9556;  31.4628;
  1.5880;  13.4668;  16.2020;   7.3352;  31.9865;
  1.5890;  12.8592;  15.9698;   6.5676;  32.1952;
  1.5900;  12.0816;  16.3305;   6.5436;  32.1043;
  1.5910;  11.4003;  25.3499;   6.6949;  31.3022;
  1.5920;  11.0534;  38.6101;   5.6520;  31.2618;
  1.5930;  12.6123;  43.5373;   5.8734;  30.7651;
  1.5940;  12.7364;  38.9208;   5.3252;  30.7444;
  1.5950;  12.9785;  32.5573;   5.6036;  30.3216;
  1.5960;  11.5915;  23.0292;   5.8319;  28.6830;
  1.5970;  10.5293;  11.0891;   5.9783;  28.7369;
  1.5980;  12.6333;   3.6658;   7.5538;  28.7466;
  1.5990;  10.7163;  -2.8508;   6.7845;  29.0816;
  1.6000;  13.1935;  -8.1477;   8.5303;  29.2717;
  1.6010;  18.7674;  -8.0030;  10.4512;  27.9460;
  1.6020;  14.1264;  -5.1636;   6.2010;  29.2504;
  1.6030;  11.9082;   1.3734;   4.8312;  29.8742;
  1.6040;  14.3293;   8.4408;   6.3583;  29.2593;
  1.6050;  13.0631;  11.2100;   5.8293;  31.1172;
  1.6060;  13.1517;  12.7858;   5.8817;  30.9561;
  1.6070;  12.7917;  13.4809;   6.4079;  31.3424;
  1.6080;  12.7179;  13.4371;   6.9244;  32.8294;
  1.6090;  13.9383;  13.6979;   6.5418;  30.8595;
  1.6100;  12.9014;  13.4763;   5.7187;  31.1807;
  1.6110;  13.7736;  14.0201;   5.8947;  32.8686;
  1.6120;  14.6978;  14.6964;   6.5943;  32.0076;
  1.6130;  13.3294;  14.6811;   6.9921;  32.3439;
  1.6140;  13.1644;  14.5990;   6.3857;  32.9652;
  1.6150;  13.3197;  14.3200;   6.3934;  33.0104;
  1.6160;  14.1506;  14.0033;   6.3278;  32.8523;
  1.6170;  14.2898;  12.9178;   6.2464;  32.2316;
  1.6180;  13.4376;  12.6205;   7.3033;  32.3297;
  1.6190;  15.2803;  14.7416;   8.6081;  31.4210;
  1.6200;  16.3951;  15.9968;  13.4188;  30.3165;
  1.6210;  15.4406;  14.8793;  16.6522;  30.5590;
  1.6220;  15.1352;  13.5495;  11.9498;  31.0009;
  1.6230;  14.3761;  13.5297;   6.3783;  31.4368;
  1.6240;  14.3098;  13.7690;   2.2674;  30.5576;
  1.6250;  14.3688;  13.0948;   0.0599;  29.9847;
  1.6260;  12.9610;  14.2108;   2.6314;  30.2625;
  1.6270;  11.7178;  15.7243;   5.6543;  29.2235;
  1.6280;  11.3601;  13.5456;   6.2079;  28.9704;
  1.6290;  13.7571;  12.1299;   6.2487;  28.7781;
  1.6300;  15.4331;  12.8218;   6.3074;  28.7769;
  1.6310;  13.1454;  12.2784;   5.4533;  31.6094;
  1.6320;  12.8309;  13.2633;   5.7040;  34.2508;
  1.6330;  13.9321;  14.2261;   6.8655;  35.0860;
  1.6340;  13.9061;  12.8574;   6.9265;  35.4142;
  1.6350;  13.3354;  12.9324;   7.6968;  36.5136;
  1.6360;  11.6097;  12.9672;   7.0531;  36.5934;
  1.6370;  13.4340;  11.6592;   6.8005;  34.0632;
  1.6380;  15.0468;  11.6462;   9.4535;  33.8348;
  1.6390;  12.3049;  12.3037;   9.8942;  34.1391;
  1.6400;  12.9868;  12.2861;  10.7441;  32.6821;
  1.6410;  13.9252;  11.8704;  10.9833;  32.8168;
  1.6420;  12.1813;  12.5716;   8.5824;  31.5049;
  1.6430;  13.1845;  13.7096;   9.9128;  30.8155;
  1.6440;  14.1986;  13.5586;  10.0020;  31.5174;
  1.6450;  13.8496;  13.6288;   7.8268;  28.7981;
  1.6460;  13.9041;  14.8956;   9.2197;  28.1730;
  1.6470;  14.6726;  16.3443;  10.4580;  29.6832;
  1.6480;  15.4968;  15.7368;  10.1904;  28.7256;
  1.6490;  13.5645;  14.0940;   9.4466;  28.3186;
  1.6500;  11.7162;  14.7433;  10.0942;  28.8375;
  1.6510;  12.3873;  15.2728;  10.9966;  29.1462;
  1.6520;  11.9816;  14.2396;   8.3913;  28.3624;
  1.6530;  10.6272;  13.7234;   8.4913;  27.6123;
  1.6540;  10.6411;  13.8964;  11.5018;  28.6010;
  1.6550;  10.7657;  14.0156;  10.5859;  28.4215;
  1.6560;  10.3763;  14.0243;   8.9720;  27.5144;
  1.6570;  11.1279;  14.9180;   9.2768;  28.0348;
  1.6580;  12.0321;  14.9114;   9.4602;  29.0114;
  1.6590;  12.5930;  15.1738;   9.5836;  29.3974;
  1.6600;  12.7462;  17.6556;   9.3252;  29.7101;
  1.6610;  10.9712;  17.5945;   8.1810;  29.7255;
  1.6620;  10.3703;  16.5603;   8.3373;  27.6877;
  1.6630;  10.5372;  15.5368;   9.6492;  27.4886;
  1.6640;   9.6387;  13.9638;   8.7239;  29.1224;
  1.6650;  10.8851;  16.9651;   7.0931;  28.3554;
  1.6660;  11.5536;  17.8309;   7.6795;  29.1544;
  1.6670;  11.6436;  15.5550;   8.6881;  29.7332;
  1.6680;  13.5003;  17.5068;   7.9978;  28.1211;
  1.6690;  13.4892;  17.3216;   7.7815;  28.3066;
  1.6700;  12.8391;  15.5624;   9.1785;  27.6244;
  1.6710;  12.7568;  16.0734;   8.3649;  27.7397;
  1.6720;  12.7323;  16.1461;   7.1037;  30.4169;
  1.6730;  12.6492;  17.5443;   7.6619;  31.6586;
  1.6740;  11.1872;  18.1333;   7.3741;  31.6214;
  1.6750;  11.3548;  17.5209;   8.0054;  30.4411;
  1.6760;  11.6428;  17.5005;   7.8860;  29.7453;
  1.6770;  10.3489;  16.0176;   6.3106;  30.5423;
  1.6780;  11.2720;  15.6225;   7.2077;  31.4434;
  1.6790;  12.5524;  16.1282;   7.2807;  32.4105;
  1.6800;  12.6401;  14.4810;   6.3639;  31.9803;
  1.6810;  12.9167;  13.7683;   6.6522;  32.0518;
  1.6820;  14.7090;  16.4413;   6.4073;  32.5793;
  1.6830;  16.1181;  17.7359;   6.4589;  30.7984;
  1.6840;  13.6755;  15.0418;   6.6232;  30.2533;
  1.6850;  12.2394;  13.7305;   6.6247;  31.6232;
  1.6860;  12.5330;  15.0569;   6.4137;  31.7042;
  1.6870;  12.6356;  17.1965;   6.2983;  30.5568;
  1.6880;  15.2847;  18.3761;   6.5432;  30.3978;
  1.6890;  15.5853;  16.8732;   5.5064;  31.4137;
  1.6900;  13.0241;  17.5961;   5.8336;  31.8766;
  1.6910;  12.9607;  19.3898;   6.4687;  32.4358;
  1.6920;  14.7398;  18.1432;   5.1823;  32.4957;
  1.6930;  16.2091;  17.3221;   5.5376;  32.4374;
  1.6940;  15.6056;  17.5116;   5.6463;  32.3391;
  1.6950;  15.2465;  18.0138;   5.7665;  30.9184;
  1.6960;  15.5847;  17.6455;   6.8906;  31.9201;
  1.6970;  15.7107;  17.4793;   6.1558;  32.2747;
  1.6980;  16.6873;  18.2683;   6.7094;  31.1635;
  1.6990;  15.5459;  17.1597;   7.7352;  33.7398;
  1.7000;  17.2737;  19.1417;   7.7960;  31.4010;
  1.7010;  21.1961;  20.7588;   8.7965;  26.5236;
  1.7020;  17.4091;  16.9267;   7.4161;  29.6376;
  1.7030;  13.9001;  15.8981;   5.7418;  32.1030;
  1.7040;  14.4643;  15.3048;   6.7444;  31.5691;
  1.7050;  12.8157;  15.1439;   7.2830;  32.5149;
  1.7060;  12.1266;  17.5416;   6.7627;  31.2422;
  1.7070;  12.7866;  14.9720;   5.9278;  29.2978;
  1.7080;  13.2024;  13.0708;   6.4972;  29.4381;
  1.7090;  13.7296;  14.6032;   8.0503;  30.1816;
  1.7100;  14.9913;  14.4180;   7.9444;  31.2360;
  1.7110;  16.0312;  13.9495;   8.1016;  31.8489;
  1.7120;  13.5649;  12.8670;   8.7707;  31.6145;
  1.7130;  13.2315;  13.8687;   8.0875;  31.2568;
  1.7140;  15.8365;  15.4632;   7.9766;  30.6083;
  1.7150;  14.8411;  13.9595;   8.2003;  30.3496;
  1.7160;  13.7425;  13.8172;   7.0843;  30.2470;
  1.7170;  13.3017;  13.6960;   5.9281;  28.9811;
  1.7180;  12.7647;  12.8286;   4.8997;  29.5179;
  1.7190;  14.6176;  13.9380;   5.1366;  31.5795;
  1.7200;  14.6038;  14.4838;   6.6452;  31.0351;
  1.7210;  13.5374;  14.1508;   6.6757;  30.9134;
  1.7220;  15.6634;  14.5858;   8.1936;  32.1194;
  1.7230;  16.3888;  14.8602;   9.3378;  30.9327;
  1.7240;  14.3917;  13.8541;   6.2620;  29.8877;
  1.7250;  14.4586;  13.7411;   6.1185;  31.0232;
  1.7260;  15.2748;  14.0848;   7.0985;  31.0297;
  1.7270;  15.3960;  12.9285;   5.7195;  30.0713;
  1.7280;  17.2539;  14.5180;   7.3556;  30.9747;
  1.7290;  17.2760;  16.1131;   7.3590;  31.8935;
  1.7300;  14.8178;  14.4718;   5.6988;  31.8962;
  1.7310;  14.4936;  15.8456;   7.2039;  31.9487;
  1.7320;  15.1618;  17.3783;   6.8604;  31.4292;
  1.7330;  15.9042;  15.8868;   5.7706;  31.9906;
  1.7340;  15.1738;  16.0692;   6.5057;  31.7719;
  1.7350;  13.2535;  16.1737;   6.2973;  30.1433;
  1.7360;  14.3720;  15.3999;   5.8872;  30.9667;
  1.7370;  14.7464;  16.3752;   6.5852;  31.3514;
  1.7380;  13.7964;  16.6636;   7.6117;  30.4144;
  1.7390;  14.4554;  16.0014;   7.2526;  30.1034;
  1.7400;  13.1393;  16.1871;   6.7372;  30.2478;
  1.7410;  13.0296;  18.0102;   6.6854;  31.2051;
  1.7420;  15.7990;  28.1155;   5.8113;  30.2283;
  1.7430;  16.3137;  42.6080;   6.1167;  29.4820;
  1.7440;  16.2873;  45.2470;   6.2967;  30.5241;
  1.7450;  17.3880;  39.7630;   6.4153;  31.1527;
  1.7460;  18.2237;  34.5920;   8.6405;  32.7627;
  1.7470;  17.8061;  24.0327;   8.9193;  31.7859;
  1.7480;  16.1498;  12.0460;   7.7536;  30.2525;
  1.7490;  16.7355;   4.8338;   8.0960;  31.8067;
  1.7500;  18.0017;  -1.6146;   8.0537;  31.6694;
  1.7510;  15.8238;  -8.6186;   7.1341;  31.4649;
  1.7520;  13.7737; -11.3359;   6.3584;  30.8885;
  1.7530;  14.5877;  -5.5882;   6.4968;  29.4124;
  1.7540;  15.1034;   3.8011;   6.3572;  29.8475;
  1.7550;  13.7422;  10.1199;   6.3618;  30.1423;
  1.7560;  13.4794;  12.3181;   7.5432;  31.6956;
  1.7570;  15.4492;  12.4291;   7.4351;  32.6425;
  1.7580;  15.5518;  14.8033;   8.0414;  32.1292;
  1.7590;  14.2200;  18.3119;  10.1977;  33.2892;
  1.7600;  15.3755;  19.5417;   9.7866;  33.2317;
  1.7610;  15.8622;  19.8362;   7.9940;  33.1850;
  1.7620;  14.0228;  20.4580;   7.8090;  32.4324;
  1.7630;  13.9376;  21.2151;   9.2406;  30.6416;
  1.7640;  15.4519;  20.4453;   9.4902;  31.5277;
  1.7650;  15.9308;  19.3959;   7.6407;  30.6075;
  1.7660;  15.4777;  18.2828;   8.0926;  29.2713;
  1.7670;  15.9041;  13.6634;  10.5026;  30.5193;
  1.7680;  16.7776;  10.3904;   9.7787;  30.7546;
  1.7690;  15.5547;  11.8004;   6.6284;  30.3702;
  1.7700;  14.3508;  12.9961;   5.8764;  29.7748;
  1.7710;  15.1367;  14.1832;   7.3433;  30.4278;
  1.7720;  14.8521;  15.9061;   7.3623;  31.3207;
  1.7730;  14.0204;  15.1363;   6.3833;  30.7919;
  1.7740;  15.1553;  14.8089;   6.1189;  31.7507;
  1.7750;  16.2231;  17.5635;   6.6716;  32.4403;
  1.7760;  15.9241;  18.2199;   6.9303;  31.8612;
  1.7770;  15.5804;  16.4884;   6.6772;  30.8918;
  1.7780;  15.1576;  16.5361;   7.6457;  30.3420;
  1.7790;  15.2993;  18.0184;   7.9961;  31.3365;
  1.7800;  16.1203;  19.8119;   8.1729;  30.9200;
  1.7810;  15.7350;  19.0325;  10.3948;  30.9289;
  1.7820;  15.2130;  18.3394;  10.7403;  32.2797;
  1.7830;  14.8785;  20.3804;   9.1651;  32.0664;
  1.7840;  14.1999;  19.2066;   8.1804;  32.4386;
  1.7850;  14.5681;  17.9419;   7.9045;  32.0272;
  1.7860;  14.9642;  18.0603;  10.0179;  30.4908;
  1.7870;  15.8192;  17.4391;  13.3015;  31.1965;
  1.7880;  16.4123;  19.6729;  16.1814;  31.7520;
  1.7890;  15.8476;  19.3111;  17.5896;  31.1682;
  1.7900;  16.5727;  18.2148;  14.9752;  32.0315;
  1.7910;  15.7420;  19.6165;   9.0545;  32.4124;
  1.7920;  15.1436;  17.9592;   2.7781;  30.9491;
  1.7930;  16.4842;  18.2135;   0.2843;  31.9718;
  1.7940;  15.2878;  18.3106;   2.8955;  33.6010;
  1.7950;  15.2436;  16.5463;   6.0461;  32.7160;
  1.7960;  13.6543;  17.6645;   6.3917;  33.0045;
  1.7970;  11.0162;  17.5826;   5.8667;  32.0672;
  1.7980;  13.3559;  17.9427;   6.4584;  31.4933;
  1.7990;  11.9488;  17.0095;   6.6022;  33.8098;
  1.8000;  12.6285;  16.5438;   7.3943;  30.2668;
  1.8010;  17.4238;  19.7174;   8.7353;  26.3330;
  1.8020;  13.4214;  16.8411;   7.7352;  30.5446;
  1.8030;  11.5771;  16.9013;   7.9998;  33.3126;
  1.8040;  13.1081;  21.0032;   8.8016;  31.9820;
  1.8050;  10.5633;  17.2340;   7.3870;  31.9928;
  1.8060;  11.4665;  15.8487;   8.1037;  31.6208;
  1.8070;  12.1894;  17.3450;   8.6149;  30.7686;
  1.8080;  12.5857;  18.4915;   7.2292;  31.6835;
  1.8090;  13.8842;  19.8719;   7.7569;  31.8534;
  1.8100;  12.7933;  16.9840;   8.6028;  31.8848;
  1.8110;  15.1256;  17.4451;   9.2932;  33.1124;
  1.8120;  16.6244;  17.6800;  10.3819;  32.7179;
  1.8130;  15.5010;  14.6566;  10.4506;  32.7885;
  1.8140;  16.1429;  15.6302;  10.3883;  32.8754;
  1.8150;  15.2079;  14.5192;  10.7163;  31.7571;
  1.8160;  15.9120;  14.6318;  10.3224;  32.9415;
  1.8170;  16.7637;  17.0864;   9.1079;  33.0605;
  1.8180;  14.7206;  15.0401;   8.2317;  31.7620;
  1.8190;  15.0679;  14.8168;   7.8149;  31.9716;
  1.8200;  15.2005;  15.1599;   7.3894;  32.0059;
  1.8210;  13.3626;  13.6513;   6.2875;  31.7168;
  1.8220;  12.2792;  13.7768;   5.4235;  30.7617;
  1.8230;  11.8672;  13.3428;   6.4521;  31.2175;
  1.8240;  11.4632;  12.5382;   5.5491;  30.0030;
  1.8250;  10.5589;  12.0836;   3.5497;  26.1252;
  1.8260;  11.9862;  12.9038;   5.5370;  28.5468;
  1.8270;  14.1501;  13.9419;   7.1332;  31.2021;
  1.8280;  13.3843;  13.3305;   6.9279;  30.0861;
  1.8290;  12.9599;  14.3108;   7.9614;  31.5187;
  1.8300;  13.1577;  14.5371;   8.5693;  31.5399;
  1.8310;  12.8028;  13.3453;   8.4005;  31.5247;
  1.8320;  12.9027;  15.2911;   7.0923;  32.7833;
  1.8330;  12.8020;  16.6207;   5.8231;  31.8650;
  1.8340;  12.8294;  15.1742;   6.6175;  31.4630;
  1.8350;  12.1650;  15.0179;   7.1338;  31.5949;
  1.8360;  11.5896;  15.3496;   6.9116;  31.8071;
  1.8370;  12.5128;  14.7104;   6.5454;  31.3253;
  1.8380;  11.8437;  15.1432;   5.7622;  30.5314;
  1.8390;  11.7316;  15.0610;   6.1070;  30.4781;
  1.8400;  13.4225;  13.9466;   6.6530;  29.0129;
  1.8410;  12.3900;  14.1978;   6.3747;  29.7705;
  1.8420;  12.6452;  13.8119;   7.9624;  31.7832;
  1.8430;  14.9081;  13.0926;   9.2900;  31.7489;
  1.8440;  14.2460;  13.0511;   7.1298;  32.9165;
  1.8450;  14.6222;  12.9893;   6.5813;  32.6863;
  1.8460;  15.2597;  13.7731;   7.3824;  31.2537;
  1.8470;  13.0429;  12.7310;   6.3888;  31.7294;
  1.8480;  11.9201;  12.7354;   7.7330;  31.7792;
  1.8490;  11.8938;  15.2239;   8.2747;  31.2026;
  1.8500;  11.8934;  14.4373;   6.7231;  30.9320;
  1.8510;  12.0636;  14.6385;   7.7637;  31.5065;
  1.8520;  12.8846;  15.9625;   7.3850;  31.8892;
  1.8530;  14.2470;  14.8924;   6.6074;  31.7019;
  1.8540;  13.7336;  14.9404;   8.5381;  32.1652;
  1.8550;  14.1418;  15.1151;   9.5612;  32.3370;
  1.8560;  14.8776;  21.9720;  10.1689;  32.8379;
  1.8570;  13.1901;  37.1075;  10.2853;  33.0131;
  1.8580;  13.4501;  44.5271;  10.4631;  32.5072;
  1.8590;  13.0561;  41.5574;  11.8110;  32.7852;
  1.8600;  10.0197;  35.6112;  11.0701;  32.4896;
  1.8610;  10.3960;  26.3740;  10.1996;  32.3807;
  1.8620;  12.7343;  13.1623;  11.2105;  32.5642;
  1.8630;  12.0575;   3.0011;  10.5240;  31.9401;
  1.8640;  10.0667;  -1.0347;   8.6422;  31.4427;
  1.8650;  10.3820;  -8.6790;   8.4465;  31.3967;
  1.8660;  10.6377; -15.0553;   8.5957;  32.2521;
  1.8670;  10.0947;  -8.7508;   8.1681;  32.1357;
  1.8680;  11.6119;   0.6260;   8.4612;  31.2220;
  1.8690;  11.5315;   6.4125;   7.7130;  31.4929;
  1.8700;  10.6372;  10.2104;   6.4577;  31.8799;
  1.8710;  12.4703;  12.4222;   7.0258;  33.0153;
  1.8720;  13.0312;  15.2378;   6.9786;  33.9734;
  1.8730;  12.9959;  16.3574;   6.6315;  34.6140;
  1.8740;  14.3554;  16.4164;   7.0896;  35.6081;
  1.8750;  14.5284;  16.8394;   6.5601;  34.8275;
  1.8760;  14.1987;  17.7108;   5.8761;  34.0838;
  1.8770;  14.4160;  21.9047;   6.1496;  33.2158;
  1.8780;  14.0292;  23.2595;   7.1536;  32.1475;
  1.8790;  14.0268;  21.2756;   6.8657;  33.0280;
  1.8800;  14.8585;  21.9514;   5.6513;  32.0697;
  1.8810;  14.1061;  20.6763;   6.5765;  29.7475;
  1.8820;  13.3923;  18.9998;   6.8983;  28.9429;
  1.8830;  14.7838;  19.3433;   5.9180;  28.0280;
  1.8840;  15.9951;  18.7300;   6.5252;  27.4713;
  1.8850;  15.8609;  19.4272;   6.8007;  27.9656;
  1.8860;  14.1853;  18.7669;   6.7205;  28.6860;
  1.8870;  13.5474;  16.6658;   6.8060;  28.3656;
  1.8880;  14.1758;  17.3219;   5.4934;  27.7530;
  1.8890;  13.8539;  18.3384;   5.3866;  27.6509;
  1.8900;  15.2216;  19.2687;   6.6954;  27.8768;
  1.8910;  16.4942;  19.9551;   6.2848;  30.5082;
  1.8920;  16.4732;  21.0354;   5.9251;  32.2501;
  1.8930;  16.2436;  22.8333;   6.3531;  31.0628;
  1.8940;  15.5204;  22.0043;   6.6049;  31.0985;
  1.8950;  17.5460;  21.2627;   7.7869;  31.6360;
  1.8960;  16.9268;  19.5996;   7.0342;  31.9993;
  1.8970;  13.3947;  14.0172;   5.2509;  31.0951;
  1.8980;  13.0258;  10.0291;   6.4703;  29.6054;
  1.8990;  12.2757;   9.3996;   6.8550;  30.7973;
  1.9000;  16.0742;  12.6650;   7.2893;  28.1047;
  1.9010;  20.2100;  16.5566;   9.1103;  24.6949;
  1.9020;  15.7312;  14.5551;   7.0411;  29.6602;
  1.9030;  13.5940;  13.4164;   5.5145;  32.1600;
  1.9040;  13.8604;  15.5984;   7.0503;  30.2603;
  1.9050;  13.3120;  14.3156;   6.2173;  32.1462;
  1.9060;  15.0166;  13.1435;   5.7413;  31.4917;
  1.9070;  14.4784;  14.1950;   7.2132;  29.0063;
  1.9080;  12.9035;  14.1659;   7.2912;  29.7471;
  1.9090;  11.6328;  15.4016;   7.3461;  29.2613;
  1.9100;  11.1609;  16.4729;   8.1536;  28.5784;
  1.9110;  12.2708;  14.5444;   7.4986;  28.6715;
  1.9120;  12.6937;  14.1968;   6.0739;  27.7497;
  1.9130;  13.5787;  14.5390;   6.0536;  27.6582;
  1.9140;  12.2134;  12.6887;   6.2893;  28.0913;
  1.9150;  10.4017;  12.3751;   5.6208;  29.1778;
  1.9160;  11.4663;  12.4588;   5.6413;  29.4981;
  1.9170;  11.5356;  12.2625;   6.1207;  28.6177;
  1.9180;  11.5709;  14.0564;   6.1236;  29.5380;
  1.9190;  11.0844;  14.6710;   6.9481;  29.3445;
  1.9200;  11.2480;  13.6439;   7.9827;  28.8554;
  1.9210;  12.3084;  12.9842;   8.0245;  29.8787;
  1.9220;  11.1112;  12.8196;   8.1587;  29.1881;
  1.9230;  12.9642;  13.0647;   8.4253;  29.6721;
  1.9240;  14.3675;  13.3510;   8.7623;  29.7290;
  1.9250;  11.5782;  13.7561;   8.2409;  28.4550;
  1.9260;  11.8114;  13.4962;   7.0969;  30.1386;
  1.9270;  14.3830;  15.2031;   8.6229;  29.2758;
  1.9280;  15.8117;  17.6510;   9.3081;  27.2335;
  1.9290;  13.9470;  14.9035;   7.5424;  28.6476;
  1.9300;  11.9625;  13.0055;   8.9836;  28.3782;
  1.9310;  13.4047;  15.0335;  13.1931;  28.1458;
  1.9320;  13.3315;  15.3844;  17.5405;  29.2935;
  1.9330;  13.3420;  14.9241;  16.5354;  29.1043;
  1.9340;  13.7801;  14.0410;   9.1957;  28.7134;
  1.9350;  11.7234;  13.4217;   4.2550;  27.3402;
  1.9360;  11.2875;  13.8002;   0.4756;  26.9322;
  1.9370;  12.2030;  12.9711;  -0.9429;  28.3344;
  1.9380;  11.9479;  13.2981;   3.8573;  27.7675;
  1.9390;  11.3089;  14.8561;   6.4594;  27.4473;
  1.9400;  12.1496;  14.3629;   6.0952;  29.0183;
  1.9410;  13.6692;  13.7184;   6.0552;  29.4640;
  1.9420;  13.9070;  14.8419;   6.5342;  29.2267;
  1.9430;  14.6730;  14.6442;   7.0161;  29.6625;
  1.9440;  14.1005;  13.3243;   4.8114;  29.9712;
  1.9450;  12.8291;  13.8976;   5.1957;  29.8486;
  1.9460;  13.3971;  13.6008;   6.9457;  30.2051;
  1.9470;  12.5370;  13.2454;   5.3657;  30.6848;
  1.9480;  12.5480;  14.5240;   5.0036;  29.6219;
  1.9490;  13.5434;  14.2180;   4.6680;  28.7311;
  1.9500;  11.9700;  14.1910;   4.5134;  29.1346;
  1.9510;  11.1921;  13.6089;   4.0242;  28.1175;
  1.9520;  12.3614;  12.1087;   1.8227;  27.5422;
  1.9530;  13.3802;  13.2590;   3.3442;  30.0362;
  1.9540;  13.3943;  13.5253;   4.8280;  31.8089;
  1.9550;  13.6974;  12.5698;   4.5505;  30.6798;
  1.9560;  14.6931;  13.1627;   5.8057;  29.7688;
  1.9570;  14.5049;  14.2669;   6.1273;  30.7694;
  1.9580;  15.2572;  14.1640;   6.7680;  31.2981;
  1.9590;  17.2709;  12.7380;   6.6959;  31.0061;
  1.9600;  17.2646;  12.9727;   5.6057;  30.5118;
  1.9610;  15.6837;  13.3817;   5.9023;  29.3006;
  1.9620;  15.0323;  13.4254;   5.7143;  30.0503;
  1.9630;  15.3555;  13.6875;   5.9731;  30.8179;
  1.9640;  14.9794;  12.3478;   6.5289;  29.5062;
  1.9650;  14.7038;  13.0035;   6.5737;  29.9161;
  1.9660;  14.0010;  13.6965;   6.4866;  29.3214;
  1.9670;  12.6476;  13.8473;   5.4383;  27.6480;
  1.9680;  12.9569;  15.7692;   5.2922;  28.7629;
  1.9690;  13.0118;  14.5718;   5.9803;  29.7018;
  1.9700;  13.0968;  13.8851;   7.1827;  30.1998;
  1.9710;  14.2827;  14.4363;   8.2667;  30.8979;
  1.9720;  13.3313;  13.7886;   6.9872;  30.3351;
  1.9730;  11.9865;  14.7491;   5.8939;  28.7262;
  1.9740;  12.5986;  13.7625;   5.9536;  28.3432;
  1.9750;  12.5532;  13.3412;   5.6957;  30.3150;
  1.9760;  12.1772;  14.2501;   6.6510;  29.9855;
  1.9770;  13.4246;  14.3894;   8.3633;  29.3098;
  1.9780;  12.7570;  15.5325;   7.4617;  30.5128;
  1.9790;  11.0609;  13.2325;   5.5256;  29.3024;
  1.9800;  12.7458;  12.7387;   5.5986;  29.9265;
  1.9810;  12.4752;  14.6439;   4.9282;  31.1397;
  1.9820;  10.7925;  13.4887;   4.4454;  28.9268;
  1.9830;  12.6043;  15.2686;   4.9046;  29.6150;
  1.9840;  13.8382;  15.6905;   4.4469;  31.8178;
  1.9850;  13.4867;  14.3315;   5.4852;  30.9278;
  1.9860;  12.4007;  15.3965;   5.6802;  29.9784;
  1.9870;  12.6896;  15.4658;   5.2407;  30.7741;
  1.9880;  13.7910;  21.4083;   5.8574;  30.4139;
  1.9890;  12.5450;  35.1101;   5.5016;  30.1212;
  1.9900;  12.6501;  46.0543;   6.1569;  31.9601;
  1.9910;  12.2016;  44.9815;   5.6001;  31.3733;
  1.9920;  12.2305;  36.7993;   6.0087;  30.9934;
  1.9930;  13.9766;  28.9449;   7.0652;  31.7754;
  1.9940;  13.1025;  16.2264;   4.9207;  30.9874;
  1.9950;  15.4561;   6.0998;   6.9092;  32.3098;
  1.9960;  16.3130;   0.6056;   7.3711;  32.0785;
  1.9970;  14.8925;  -6.9548;   6.7901;  32.2210;
  1.9980;  16.1734;  -9.2612;   8.4860;  31.1107;
  1.9990;  13.1041;  -6.2228;   3.8564;  26.9582;
  2.0000;  17.9750;   5.8809;   8.9842;  34.2826;
  2.0010;  22.2012;  16.8185;  14.5490;  35.0177;
  2.0020;  10.4714;  11.7262;   3.9954;  23.2027;
  2.0030;   9.2939;  12.9504;   4.2763;  27.6968;
  2.0040;  13.9077;  18.0798;   8.8688;  33.0396;
  2.0050;  11.1399;  14.0131;   5.4286;  29.3135;
  2.0060;  13.6006;  15.4819;   6.1715;  30.7810;
  2.0070;  13.5353;  17.4396;   6.0567;  30.5195;
  2.0080;  11.0564;  15.8171;   8.3070;  30.6840;
  2.0090;  11.6612;  15.8915;   9.9830;  31.7167;
  2.0100;  11.9483;  15.5479;   6.8032;  30.3000;
  2.0110;  14.1383;  16.0407;   8.9496;  31.1912;
  2.0120;  14.4978;  16.2419;   9.6352;  30.7068;
  2.0130;  14.6327;  18.3024;   7.9906;  30.3373;
  2.0140;  15.5472;  19.3605;   8.7685;  31.1517;
  2.0150;  14.7405;  18.0351;   9.0554;  31.3887;
  2.0160;  15.4743;  19.9113;  10.2573;  32.1543;
  2.0170;  14.6263;  18.2260;   9.6639;  31.3797;
  2.0180;  13.7540;  15.1279;   8.8812;  31.5745;
  2.0190;  15.0564;  16.4411;   9.7568;  31.9988;
  2.0200;  14.4909;  17.2761;   9.5094;  31.0895;
  2.0210;  13.4378;  17.4305;   8.4522;  30.1009;
  2.0220;  13.8911;  16.4708;   7.0887;  29.2812;
  2.0230;  14.9065;  15.9217;   7.8400;  30.4459;
  2.0240;  13.3692;  15.6381;   7.3961;  29.6767;
  2.0250;  12.7643;  14.2468;   6.2538;  29.7625;
  2.0260;  14.1390;  14.2386;   7.1869;  30.9947;
  2.0270;  12.9095;  14.0332;   5.9400;  28.7805;
  2.0280;  15.4815;  16.3553;   7.4357;  32.2582;
  2.0290;  16.6655;  17.4138;   8.3497;  33.5896;
  2.0300;  11.0578;  12.9584;   4.8320;  27.6643;
  2.0310;  10.9906;  13.5138;   6.2384;  29.5319;
  2.0320;  12.2248;  15.7735;   7.3685;  32.5639;
  2.0330;   9.9393;  14.0340;   6.0095;  31.5859;
  2.0340;  10.7310;  14.1776;   6.1918;  31.6695;
  2.0350;  10.9187;  14.1428;   4.8033;  30.8479;
  2.0360;  10.6299;  13.6186;   5.2695;  31.5322;
  2.0370;  12.8908;  14.5332;   6.2323;  31.4551;
  2.0380;  13.2879;  15.4222;   5.4671;  30.6478;
  2.0390;  11.9559;  16.6015;   5.9967;  31.3951;
  2.0400;  12.1796;  16.0618;   5.8703;  30.3000;
  2.0410;  12.4332;  14.9789;   5.3148;  30.8324;
  2.0420;  12.1762;  15.6760;   4.6474;  31.2909;
  2.0430;  12.4486;  14.9722;   4.1847;  29.3457;
  2.0440;  12.7141;  14.1992;   4.5039;  29.9617;
  2.0450;  14.6254;  15.3308;   3.6621;  29.7722;
  2.0460;  15.6384;  14.7327;   3.7508;  28.2249;
  2.0470;  13.5545;  13.3235;   4.6030;  29.2668;
  2.0480;  13.2828;  13.1357;   4.6621;  30.2641;
  2.0490;  13.4019;  12.8929;   5.2764;  30.5507;
  2.0500;  12.6876;  12.8494;   5.5038;  30.4914;
  2.0510;  13.1975;  12.4403;   6.1027;  29.0359;
  2.0520;  12.1723;  12.3659;   6.7484;  28.5240;
  2.0530;  10.9493;  12.9886;   5.8275;  29.0026;
  2.0540;  11.1269;  13.0921;   5.7157;  28.3722;
  2.0550;  11.7731;  13.4515;   5.9023;  28.1914;
  2.0560;  13.7544;  13.0844;   5.2045;  28.4073;
  2.0570;  14.8927;  14.1200;   5.4482;  28.5628;
  2.0580;  13.9385;  17.5427;   5.8170;  29.8023;
  2.0590;  13.0675;  18.4760;   5.7786;  30.2385;
  2.0600;  12.7233;  16.7139;   5.9601;  30.5561;
  2.0610;  13.2795;  14.3866;   6.0532;  31.4917;
  2.0620;  15.8920;  14.8891;   6.8806;  31.1760;
  2.0630;  16.6054;  16.9590;   7.5124;  31.6517;
  2.0640;  14.4049;  16.1422;   7.1621;  32.0528;
  2.0650;  14.3551;  16.3447;   7.0784;  30.7423;
  2.0660;  13.0240;  16.2416;   6.6468;  30.6126;
  2.0670;   9.8531;  14.5697;   6.4243;  31.3710;
  2.0680;   9.8650;  14.7000;   6.8256;  31.9849;
  2.0690;   9.8835;  13.5943;   6.1282;  32.4026;
  2.0700;   9.9977;  13.3554;   4.9536;  32.1981;
  2.0710;  11.0154;  14.5639;   5.0189;  32.8440;
  2.0720;  10.7851;  13.9199;   6.3287;  33.5553;
  2.0730;  10.8872;  14.0359;   7.0695;  32.6830;
  2.0740;  11.2095;  14.6516;   6.9594;  32.4319;
  2.0750;  11.8646;  14.4525;   6.7806;  33.2316;
  2.0760;  12.7438;  14.2465;   7.0889;  32.5735;
  2.0770;  13.0762;  14.7973;   8.6182;  32.0774;
  2.0780;  12.5156;  14.4057;   8.0414;  32.6584;
  2.0790;  12.3694;  13.1989;   6.9272;  31.7465;
  2.0800;  14.3572;  13.8978;   8.9388;  31.6090;
  2.0810;  13.5982;  13.6837;   9.6075;  33.0873;
  2.0820;  12.1950;  14.2632;   9.4293;  32.9464;
  2.0830;  13.0576;  15.0455;   8.7448;  32.1111;
  2.0840;  12.1664;  14.0069;   7.4424;  31.7461;
  2.0850;  13.3245;  17.0077;   9.8579;  31.9253;
  2.0860;  13.5353;  18.5726;  10.5411;  32.2381;
  2.0870;  11.3142;  17.7120;   8.5640;  31.2823;
  2.0880;  12.0892;  17.8607;   8.5435;  30.9475;
  2.0890;  11.6836;  15.5465;   8.9586;  31.8678;
  2.0900;  11.1747;  16.6455;   9.6349;  31.4211;
  2.0910;  11.0609;  18.0169;   7.5868;  30.0376;
  2.0920;  11.0582;  16.1834;   5.7015;  30.0633;
  2.0930;  12.4513;  13.2207;   6.8628;  31.2977;
  2.0940;  11.7157;   7.6914;   7.1367;  33.3867;
  2.0950;  13.1335;   8.2876;   8.6872;  36.5598;
  2.0960;  12.4558;  10.7686;   7.6741;  37.6721;
  2.0970;  10.2292;  12.7818;   6.3819;  36.4263;
  2.0980;  12.5634;  16.5679;   8.7149;  35.7371;
  2.0990;  10.7995;  13.3667;   6.5875;  35.4996;
  2.1000;  16.3870;  17.4545;   9.6273;  36.7923;
  2.1010;  24.1019;  23.4008;  15.0508;  35.8876;
  2.1020;  15.0406;  15.7370;   8.8309;  30.8774;
  2.1030;  12.6300;  14.7873;   7.2895;  31.2058;
  2.1040;  17.5907;  16.3853;  10.8023;  33.7878;
  2.1050;  14.5221;  13.5593;   7.7296;  31.4828;
  2.1060;  14.7231;  16.3413;   6.9704;  31.3538;
  2.1070;  16.5458;  15.7233;   7.9528;  32.0790;
  2.1080;  16.1105;  13.4205;   7.5437;  30.4086;
  2.1090;  15.3820;  13.8932;   8.2486;  31.0463;
  2.1100;  14.5904;  13.0260;   7.3481;  30.9990;
  2.1110;  15.2915;  13.9484;   6.6947;  29.9039;
  2.1120;  13.9218;  15.0033;   7.6767;  31.0354;
  2.1130;  14.0382;  14.1699;   7.4306;  31.4288;
  2.1140;  15.9841;  13.5712;   6.5847;  31.7632;
  2.1150;  15.3548;  13.9129;   6.7952;  31.9668;
  2.1160;  15.5065;  13.3618;   7.2155;  30.3817;
  2.1170;  15.3599;  12.3450;   6.6512;  30.5890;
  2.1180;  14.6527;  12.8649;   5.5424;  30.1735;
  2.1190;  14.7145;  13.1757;   5.1065;  27.4697;
  2.1200;  14.5304;  13.7836;   6.2567;  28.3080;
  2.1210;  15.6213;  13.4214;   7.5507;  29.6554;
  2.1220;  16.4115;  14.1193;   7.9740;  27.7376;
  2.1230;  15.8370;  17.0618;   9.0615;  27.2950;
  2.1240;  15.7911;  15.1115;   9.6827;  28.0822;
  2.1250;  16.6020;  13.9637;  10.7620;  28.5153;
  2.1260;  17.3375;  16.2227;  15.9650;  29.7304;
  2.1270;  17.4087;  14.7665;  18.8851;  29.6842;
  2.1280;  16.7722;  12.5415;  13.1853;  29.3595;
  2.1290;  15.6986;  12.0394;   6.1232;  30.1767;
  2.1300;  15.2813;  13.0919;   1.5583;  29.6248;
  2.1310;  14.8086;  13.6729;  -0.9206;  29.2346;
  2.1320;  15.6566;  15.5059;   2.9967;  29.4920;
  2.1330;  16.8862;  18.5045;   7.0367;  28.2000;
  2.1340;  14.1958;  15.2979;   5.7071;  28.0863;
  2.1350;  13.4948;  13.1910;   6.4043;  28.9651;
  2.1360;  15.9653;  14.8119;   7.9403;  28.8793;
  2.1370;  15.7251;  14.2402;   7.6011;  31.0669;
  2.1380;  14.5733;  13.8508;   9.0322;  34.4016;
  2.1390;  13.4589;  12.7934;   9.1671;  35.1231;
  2.1400;  14.2048;  13.6523;   7.5581;  34.7972;
  2.1410;  15.7716;  13.4358;   8.1201;  35.2039;
  2.1420;  15.3956;  16.3128;   8.4751;  36.0888;
  2.1430;  16.6285;  33.5517;   7.4495;  36.1755;
  2.1440;  16.2074;  44.7351;   8.3871;  34.8505;
  2.1450;  14.3308;  41.4250;   9.1127;  33.9463;
  2.1460;  16.5138;  36.9123;   7.4837;  33.1050;
  2.1470;  17.0682;  28.4864;   8.7548;  31.8508;
  2.1480;  14.8939;  17.0117;  11.1819;  32.8154;
  2.1490;  16.0318;   6.6882;   9.7626;  32.4415;
  2.1500;  17.5446;  -0.7034;   8.1169;  28.2049;
  2.1510;  15.8296;  -7.4549;   7.7145;  28.3275;
  2.1520;  14.7331; -13.7601;   7.8716;  32.3429;
  2.1530;  14.6581;  -9.6131;   8.2893;  32.9941;
  2.1540;  14.7828;  -1.0049;   7.7324;  32.5760;
  2.1550;  16.7837;   5.8703;   7.9694;  32.2593;
  2.1560;  16.9330;  12.6281;   8.1847;  32.2561;
  2.1570;  16.2212;  13.3582;   7.0125;  32.9755;
  2.1580;  16.6058;  13.5129;   6.1951;  31.6609;
  2.1590;  15.3518;  15.3291;   5.9890;  31.6470;
  2.1600;  15.7075;  15.0853;   6.2439;  32.2575;
  2.1610;  15.3183;  16.5142;   6.4048;  30.5309;
  2.1620;  12.7338;  16.9591;   6.1831;  31.2401;
  2.1630;  12.9219;  16.7041;   6.1728;  32.3301;
  2.1640;  13.8632;  18.4307;   6.7274;  31.6015;
  2.1650;  15.1475;  19.0554;   7.1198;  31.7820;
  2.1660;  15.5896;  18.1079;   6.8163;  31.5656;
  2.1670;  14.7801;  17.5031;   7.7235;  31.9124;
  2.1680;  15.0721;  18.3593;   8.4497;  32.5257;
  2.1690;  14.0933;  17.8875;   8.7242;  32.1104;
  2.1700;  14.3049;  16.3881;  10.6741;  31.8888;
  2.1710;  15.4776;  16.3743;   9.6299;  31.3335;
  2.1720;  15.0571;  15.7626;   6.5480;  31.9990;
  2.1730;  14.4506;  15.1162;   7.0216;  32.5390;
  2.1740;  12.8728;  14.8698;   7.7586;  30.6410;
  2.1750;  13.7166;  14.8736;   6.8556;  29.6517;
  2.1760;  15.2234;  15.4211;   6.8314;  29.8523;
  2.1770;  14.4336;  14.7288;   7.2120;  30.3168;
  2.1780;  14.3064;  14.6490;   6.4017;  30.7154;
  2.1790;  12.8497;  15.2025;   6.1735;  29.9226;
  2.1800;  11.8930;  13.9416;   6.5817;  29.6736;
  2.1810;  11.9049;  13.3500;   5.5489;  29.5818;
  2.1820;  11.5884;  14.6610;   6.0214;  29.0890;
  2.1830;  12.0675;  15.2633;   7.0461;  29.4035;
  2.1840;  10.5876;  15.2701;   7.1140;  29.1633;
  2.1850;  10.7195;  15.7218;   8.4698;  29.6391;
  2.1860;  11.5686;  15.0147;   7.6178;  31.6644;
  2.1870;  10.4284;  14.1437;   6.3569;  31.3959;
  2.1880;  11.5714;  13.8404;   6.8050;  29.6575;
  2.1890;  11.7486;  13.4017;   6.7352;  29.5114;
  2.1900;  11.8047;  13.5338;   8.7201;  29.7554;
  2.1910;  12.7589;  13.6184;   8.6770;  29.9000;
  2.1920;  11.5814;  15.6811;   6.4796;  29.7462;
  2.1930;  11.1928;  16.3666;   6.8139;  29.5551;
  2.1940;  11.7275;  13.3706;   6.3924;  30.3091;
  2.1950;  13.1174;  14.3692;   7.2912;  30.0983;
  2.1960;  12.5357;  14.9104;   8.2411;  29.6040;
  2.1970;  11.1234;  13.3217;   6.5813;  29.1705;
  2.1980;  12.5144;  14.6975;   6.7146;  28.3229;
  2.1990;  11.6028;  14.0815;   6.4960;  29.8660;
  2.2000;  14.0729;  15.8433;   6.8260;  28.4516;
  2.2010;  18.0195;  18.5417;   8.3360;  24.3779;
  2.2020;  14.5521;  15.4149;   6.9729;  27.1628;
  2.2030;  13.4843;  14.5732;   6.0981;  30.1500;
  2.2040;  14.8673;  15.0952;   6.5874;  28.9297;
  2.2050;  14.3457;  14.0222;   7.2739;  29.9489;
  2.2060;  13.8278;  14.1412;   8.2611;  31.5534;
  2.2070;  12.2577;  14.5038;   8.2565;  32.2949;
  2.2080;  13.3313;  15.6657;   8.3204;  32.5031;
  2.2090;  13.8699;  15.2182;   7.6024;  31.5090;
  2.2100;  12.8004;  14.1107;   6.4264;  29.8354;
  2.2110;  13.6605;  13.7175;   6.2744;  28.8628;
  2.2120;  12.6055;  12.7784;   6.5301;  30.8959;
  2.2130;  12.0805;  13.3060;   6.2270;  31.3568;
  2.2140;  12.5895;  12.8594;   4.4688;  29.6845;
  2.2150;  11.3763;  12.6409;   4.6164;  30.4149;
  2.2160;  11.0047;  13.4543;   5.1885;  30.1854;
  2.2170;  11.6612;  13.2465;   3.8551;  30.3517;
  2.2180;  12.7673;  14.0816;   5.2663;  31.0450;
  2.2190;  13.1186;  13.2753;   6.1403;  29.3332;
  2.2200;  12.8061;  14.1245;   5.3918;  30.2369;
  2.2210;  12.9289;  16.6343;   6.8216;  31.0089;
  2.2220;  13.6808;  14.7460;   7.0993;  29.3146;
  2.2230;  14.0906;  14.3266;   6.4905;  29.2707;
  2.2240;  12.2176;  14.3122;   6.2566;  28.3339;
  2.2250;  11.8302;  14.0323;   5.9725;  28.1901;
  2.2260;  12.0953;  16.5921;   6.6916;  30.2106;
  2.2270;  11.2906;  17.0249;   7.3925;  31.0266;
  2.2280;  12.6063;  17.8195;   7.6638;  31.8105;
  2.2290;  11.6932;  17.0102;   6.8625;  31.2618;
  2.2300;  10.9568;  13.6875;   6.2394;  29.1420;
  2.2310;  12.2268;  13.8793;   5.4900;  27.8688;
  2.2320;  10.9999;  13.9188;   4.4741;  28.1042;
  2.2330;  13.6106;  16.1827;   7.8318;  30.6175;
  2.2340;  16.5417;  18.1449;   9.7389;  30.9581;
  2.2350;  13.7811;  13.8576;   6.7016;  29.3394;
  2.2360;  13.3389;  13.0911;   5.9634;  30.3394;
  2.2370;  14.8399;  14.5059;   6.1377;  29.2847;
  2.2380;  13.8726;  13.1049;   5.8562;  26.9035;
  2.2390;  13.0379;  13.0604;   6.0724;  27.4787;
  2.2400;  13.8744;  12.8038;   6.0589;  28.0506;
  2.2410;  13.3621;  13.3000;   7.0144;  28.5811;
  2.2420;  11.3322;  14.8823;   6.4013;  27.9783;
  2.2430;  11.9347;  14.2265;   5.4709;  26.3478;
  2.2440;  12.9883;  13.4747;   6.4841;  27.4584;
  2.2450;  12.2128;  14.0403;   7.0118;  27.8988;
  2.2460;  11.9727;  13.9040;   7.3022;  27.0870;
  2.2470;  12.0901;  12.9838;   6.5244;  28.6197;
  2.2480;  11.9119;  13.3244;   5.5041;  30.0627;
  2.2490;  11.6277;  13.8311;   5.8450;  29.9154;
  2.2500;  11.1812;  12.9863;   5.8227;  29.7768;
  2.2510;  10.8738;  12.9867;   6.1523;  30.0914;
  2.2520;  12.3649;  14.1905;   6.8389;  29.9438;
  2.2530;  14.0531;  14.6022;   7.4434;  29.7945;
  2.2540;  13.0333;  13.2782;   7.8642;  30.2592;
  2.2550;  12.1908;  12.7739;   7.9307;  29.8521;
  2.2560;  11.9625;  14.1134;   9.2334;  29.6653;
  2.2570;  11.7910;  13.8845;  10.0472;  30.0394;
  2.2580;  13.1285;  14.5491;   9.7181;  30.0658;
  2.2590;  14.2705;  17.1802;   9.1850;  30.9886;
  2.2600;  14.1863;  16.0696;   7.9699;  31.9971;
  2.2610;  13.0239;  13.7704;   8.4304;  32.5650;
  2.2620;  13.2987;  14.0349;   8.8273;  31.4338;
  2.2630;  13.9077;  13.6618;   6.9274;  29.3839;
  2.2640;  12.7485;  13.2836;   6.0324;  30.5467;
  2.2650;  13.4366;  13.4883;   5.9437;  31.4965;
  2.2660;  12.7115;  12.8123;   5.9794;  30.5582;
  2.2670;  11.7905;  14.0323;   6.4797;  31.1864;
  2.2680;  14.0585;  16.0219;   7.4313;  32.0972;
  2.2690;  13.5130;  15.1631;  11.7707;  32.6610;
  2.2700;  12.5374;  13.5145;  14.8991;  32.9574;
  2.2710;  11.5527;  15.7111;  10.5107;  32.5675;
  2.2720;  10.2241;  26.8463;   5.1517;  31.5975;
  2.2730;  12.2214;  41.3959;   1.3201;  31.5704;
  2.2740;  12.2091;  46.9065;  -2.7650;  33.4055;
  2.2750;  12.6589;  43.8317;  -0.3597;  32.2515;
  2.2760;  15.1986;  36.2852;   5.3704;  30.1909;
  2.2770;  15.9351;  25.1525;   6.3463;  31.3857;
  2.2780;  17.7304;  13.1615;   6.3479;  30.6652;
  2.2790;  17.0483;   3.4540;   6.5634;  29.1327;
  2.2800;  14.6329;  -1.4083;   6.0629;  29.7247;
  2.2810;  14.1139;  -6.8534;   6.2364;  29.5871;
  2.2820;  12.7857; -13.0301;   5.4137;  28.3805;
  2.2830;  12.7177; -10.3904;   4.7592;  27.7512;
  2.2840;  13.1092;  -2.5424;   5.4245;  28.2911;
  2.2850;  12.3397;   4.2156;   5.6178;  27.9266;
  2.2860;  11.7154;   9.8283;   6.1681;  27.4727;
  2.2870;  11.6449;  12.3383;   8.9702;  28.4705;
  2.2880;  11.8273;  12.6403;  10.7267;  29.0850;
  2.2890;  10.5724;  12.7126;   7.8282;  29.4072;
  2.2900;  10.4606;  13.9729;   5.8807;  29.1089;
  2.2910;  10.8376;  15.1500;   7.0954;  29.8816;
  2.2920;  10.8035;  15.1295;   7.3418;  31.2133;
  2.2930;  12.0942;  15.6388;   6.8920;  30.1622;
  2.2940;  11.2726;  15.3162;   6.4223;  30.0182;
  2.2950;  11.0894;  16.8287;   7.9922;  30.4926;
  2.2960;  11.6882;  19.3041;   8.8600;  30.6680;
  2.2970;  11.0497;  18.0687;   6.2357;  30.1265;
  2.2980;  11.8160;  18.4397;   7.0428;  29.0529;
  2.2990;  10.6357;  19.5345;   8.8958;  31.2374;
  2.3000;  13.1521;  19.3008;   8.9133;  28.4807;
  2.3010;  18.1618;  20.5853;   9.6125;  24.2962;
  2.3020;  14.7045;  18.4197;   7.1410;  30.3143;
  2.3030;  12.6496;  16.3724;   6.1017;  33.4355;
  2.3040;  14.5799;  18.7506;   8.2553;  31.8696;
  2.3050;  13.5646;  18.0751;   8.0080;  32.8081;
  2.3060;  13.9099;  15.6648;   7.5671;  31.5042;
  2.3070;  14.4887;  15.6050;   6.4426;  30.9980;
  2.3080;  14.0326;  14.7365;   5.2634;  30.5696;
  2.3090;  14.0739;  13.2372;   5.4334;  29.5815;
  2.3100;  13.8910;  13.4656;   5.0469;  31.0874;
  2.3110;  14.9196;  14.4281;   6.3125;  31.4489;
  2.3120;  15.1029;  14.7920;   7.0745;  32.3223;
  2.3130;  13.5555;  14.6602;   6.0158;  32.4241;
  2.3140;  13.7752;  14.1953;   5.9071;  30.8406;
  2.3150;  13.8632;  14.3932;   5.6482;  31.8307;
  2.3160;  11.7666;  15.0236;   5.9838;  31.9659;
  2.3170;  12.3348;  15.0778;   6.8228;  31.9231;
  2.3180;  14.5154;  15.7187;   6.6303;  33.3049;
  2.3190;  14.1954;  16.6938;   6.5660;  32.8414;
  2.3200;  14.5831;  15.9422;   6.6842;  32.4294;
  2.3210;  14.2482;  14.2129;   6.5077;  32.6484;
  2.3220;  12.9013;  15.3919;   6.8765;  32.7226;
  2.3230;  14.1098;  17.8682;   8.0418;  33.3194;
  2.3240;  14.5084;  16.8064;   8.8314;  33.3096;
  2.3250;  13.6826;  14.9359;   8.7289;  32.9335;
  2.3260;  12.2250;  13.7394;   7.1020;  33.2246;
  2.3270;  10.6064;  12.9700;   6.3023;  33.2881;
  2.3280;  11.1754;  13.9035;   7.8813;  32.3392;
  2.3290;  11.6850;  13.5259;   7.0636;  31.7993;
  2.3300;  12.9420;  13.1188;   7.4995;  32.3057;
  2.3310;  14.4539;  13.4342;  10.4138;  32.5808;
  2.3320;  14.8964;  13.7621;   8.8919;  32.3457;
  2.3330;  15.5425;  16.7582;   8.5357;  32.1741;
  2.3340;  12.7544;  16.2797;   9.4726;  31.6632;
  2.3350;  10.2584;  13.1317;   7.9972;  31.4044;
  2.3360;  12.1764;  14.5395;   8.3274;  32.1145;
  2.3370;  12.7781;  14.4794;   6.5679;  29.1281;
  2.3380;  11.5274;  12.7453;   5.2969;  25.1193;
  2.3390;  11.9252;  13.3933;   7.8669;  28.4814;
  2.3400;  13.4579;  13.1452;   7.7294;  31.3293;
  2.3410;  12.5870;  12.8939;   6.8546;  29.2384;
  2.3420;  11.5109;  13.1099;   6.5298;  29.0491;
  2.3430;  13.0208;  12.4749;   6.2350;  29.8256;
  2.3440;  13.6732;  13.5322;   7.5486;  31.2505;
  2.3450;  14.8216;  15.0847;   8.0284;  32.0259;
  2.3460;  15.5440;  14.4429;   8.3783;  31.5815;
  2.3470;  15.0588;  15.6329;   8.7227;  32.8951;
  2.3480;  16.1163;  17.8875;   7.8088;  32.1677;
